2(theta dregrees),Intensity  (a.u)
5,0.00217
5.01,0.00207
5.02,0.00219
5.03,0.00276
5.04,0.00261
5.05,0.00236
5.06,0.00254
5.07,0.00193
5.08,0.00216
5.09,0.00249
5.1,0.00203
5.11,0.00225
5.12,0.00247
5.13,0.00292
5.14,0.00282
5.15,0.00216
5.16,0.00171
5.17,0.00251
5.18,0.00259
5.19,0.00209
5.2,0.00184
5.21,0.002
5.22,0.00241
5.23,0.00292
5.24,0.0033
5.25,0.00294
5.26,0.00256
5.27,0.00268
5.28,0.00339
5.29,0.00313
5.3,0.00324
5.31,0.00313
5.32,0.00237
5.33,0.00247
5.34,0.0033
5.35,0.00322
5.36,0.00274
5.37,0.00233
5.38,0.0022
5.39,0.00316
5.4,0.0033
5.41,0.00327
5.42,0.00302
5.43,0.00318
5.44,0.00422
5.45,0.00436
5.46,0.00355
5.47,0.00404
5.48,0.00404
5.49,0.00385
5.5,0.00406
5.51,0.00421
5.52,0.0041
5.53,0.00426
5.54,0.00501
5.55,0.00469
5.56,0.00366
5.57,0.00297
5.58,0.00286
5.59,0.00406
5.6,0.00487
5.61,0.00442
5.62,0.00473
5.63,0.00511
5.64,0.00491
5.65,0.00526
5.66,0.00539
5.67,0.00527
5.68,0.00537
5.69,0.00475
5.7,0.0052
5.71,0.00583
5.72,0.00582
5.73,0.00578
5.74,0.00588
5.75,0.0064
5.76,0.00704
5.77,0.00658
5.78,0.00635
5.79,0.00705
5.8,0.00727
5.81,0.00674
5.82,0.00719
5.83,0.00811
5.84,0.0092
5.85,0.00923
5.86,0.00836
5.87,0.00895
5.88,0.00987
5.89,0.00929
5.9,0.00896
5.91,0.00907
5.92,0.00943
5.93,0.00964
5.94,0.01031
5.95,0.01032
5.96,0.01004
5.97,0.01156
5.98,0.01181
5.99,0.01128
6,0.01111
6.01,0.01115
6.02,0.01164
6.03,0.01199
6.04,0.01249
6.05,0.01277
6.06,0.01257
6.07,0.01262
6.08,0.01307
6.09,0.01349
6.1,0.01421
6.11,0.01451
6.12,0.0151
6.13,0.01507
6.14,0.01552
6.15,0.01659
6.16,0.01696
6.17,0.01745
6.18,0.01841
6.19,0.01789
6.2,0.01759
6.21,0.0188
6.22,0.01938
6.23,0.01961
6.24,0.02071
6.25,0.02135
6.26,0.02205
6.27,0.02326
6.28,0.02524
6.29,0.02605
6.3,0.02588
6.31,0.02739
6.32,0.02914
6.33,0.03071
6.34,0.0328
6.35,0.03457
6.36,0.03509
6.37,0.0357
6.38,0.03816
6.39,0.04144
6.4,0.04341
6.41,0.04575
6.42,0.04952
6.43,0.052
6.44,0.05699
6.45,0.06095
6.46,0.06416
6.47,0.06918
6.48,0.07392
6.49,0.07855
6.5,0.08391
6.51,0.09015
6.52,0.09781
6.53,0.10827
6.54,0.11646
6.55,0.12581
6.56,0.13656
6.57,0.14861
6.58,0.16279
6.59,0.18024
6.6,0.19777
6.61,0.21795
6.62,0.2356
6.63,0.25703
6.64,0.28432
6.65,0.31389
6.66,0.34124
6.67,0.3699
6.68,0.40307
6.69,0.43952
6.7,0.47994
6.71,0.52491
6.72,0.57011
6.73,0.60978
6.74,0.65109
6.75,0.69925
6.76,0.74387
6.77,0.79256
6.78,0.83533
6.79,0.87952
6.8,0.91377
6.81,0.9496
6.82,0.97462
6.83,0.98713
6.84,0.99761
6.85,1
6.86,0.99189
6.87,0.96754
6.88,0.92963
6.89,0.88068
6.9,0.81893
6.91,0.75355
6.92,0.68645
6.93,0.61688
6.94,0.55094
6.95,0.48611
6.96,0.42723
6.97,0.37508
6.98,0.33267
6.99,0.29444
7,0.26112
7.01,0.23335
7.02,0.21383
7.03,0.19445
7.04,0.17393
7.05,0.15768
7.06,0.14646
7.07,0.13578
7.08,0.12578
7.09,0.11739
7.1,0.11097
7.11,0.10446
7.12,0.09797
7.13,0.092
7.14,0.08587
7.15,0.08078
7.16,0.07663
7.17,0.07335
7.18,0.06978
7.19,0.06716
7.2,0.065
7.21,0.06191
7.22,0.05825
7.23,0.05403
7.24,0.05097
7.25,0.04942
7.26,0.0474
7.27,0.04527
7.28,0.04389
7.29,0.0426
7.3,0.04144
7.31,0.04002
7.32,0.03982
7.33,0.03899
7.34,0.03603
7.35,0.03334
7.36,0.03303
7.37,0.03379
7.38,0.03279
7.39,0.03204
7.4,0.03072
7.41,0.03113
7.42,0.03075
7.43,0.02894
7.44,0.02778
7.45,0.02761
7.46,0.0278
7.47,0.02654
7.48,0.0247
7.49,0.02557
7.5,0.02627
7.51,0.02481
7.52,0.0245
7.53,0.02502
7.54,0.02486
7.55,0.02446
7.56,0.02374
7.57,0.02339
7.58,0.02256
7.59,0.02239
7.6,0.02162
7.61,0.02129
7.62,0.02177
7.63,0.02126
7.64,0.02115
7.65,0.02162
7.66,0.02161
7.67,0.02194
7.68,0.02049
7.69,0.02035
7.7,0.01963
7.71,0.01892
7.72,0.01913
7.73,0.01971
7.74,0.01982
7.75,0.01924
7.76,0.01944
7.77,0.01971
7.78,0.01887
7.79,0.0185
7.8,0.01963
7.81,0.01959
7.82,0.01936
7.83,0.01913
7.84,0.01814
7.85,0.01791
7.86,0.01786
7.87,0.01834
7.88,0.01781
7.89,0.0176
7.9,0.01852
7.91,0.01812
7.92,0.01761
7.93,0.01841
7.94,0.01928
7.95,0.0187
7.96,0.01768
7.97,0.01731
7.98,0.01758
7.99,0.01836
8,0.01803
8.01,0.01746
8.02,0.01761
8.03,0.01743
8.04,0.01767
8.05,0.01804
8.06,0.01824
8.07,0.01781
8.08,0.01651
8.09,0.017
8.1,0.01708
8.11,0.01666
8.12,0.01733
8.13,0.01791
8.14,0.01845
8.15,0.01834
8.16,0.01819
8.17,0.01821
8.18,0.01702
8.19,0.01682
8.2,0.01749
8.21,0.01682
8.22,0.01726
8.23,0.01811
8.24,0.01685
8.25,0.01603
8.26,0.01632
8.27,0.01618
8.28,0.01672
8.29,0.01823
8.3,0.01838
8.31,0.01741
8.32,0.0175
8.33,0.01765
8.34,0.01696
8.35,0.01677
8.36,0.01695
8.37,0.01747
8.38,0.01833
8.39,0.01786
8.4,0.01753
8.41,0.01853
8.42,0.01897
8.43,0.0178
8.44,0.01788
8.45,0.01747
8.46,0.01795
8.47,0.01793
8.48,0.01752
8.49,0.01779
8.5,0.01747
8.51,0.0176
8.52,0.01859
8.53,0.01771
8.54,0.01693
8.55,0.01772
8.56,0.01817
8.57,0.01789
8.58,0.01784
8.59,0.01814
8.6,0.01847
8.61,0.0183
8.62,0.0186
8.63,0.0196
8.64,0.01896
8.65,0.01759
8.66,0.01728
8.67,0.01809
8.68,0.01909
8.69,0.01824
8.7,0.01799
8.71,0.01836
8.72,0.01769
8.73,0.01862
8.74,0.01961
8.75,0.01987
8.76,0.01895
8.77,0.01784
8.78,0.01794
8.79,0.01894
8.8,0.02028
8.81,0.02088
8.82,0.01995
8.83,0.02006
8.84,0.02057
8.85,0.01984
8.86,0.01957
8.87,0.01995
8.88,0.01987
8.89,0.01983
8.9,0.02015
8.91,2.13E-02
8.92,2.26E-02
8.93,2.25E-02
8.94,2.13E-02
8.95,2.12E-02
8.96,2.19E-02
8.97,2.19E-02
8.98,2.10E-02
8.99,2.04E-02
9,0.02026
9.01,0.02056
9.02,0.01989
9.03,1.97E-02
9.04,2.12E-02
9.05,2.19E-02
9.06,2.06E-02
9.07,2.02E-02
9.08,2.09E-02
9.09,2.14E-02
9.1,2.18E-02
9.11,2.15E-02
9.12,2.13E-02
9.13,0.02209
9.14,0.02279
9.15,0.02238
9.16,0.02248
9.17,0.0235
9.18,0.02337
9.19,0.02304
9.2,2.35E-02
9.21,2.47E-02
9.22,2.61E-02
9.23,0.02586
9.24,0.02613
9.25,0.02765
9.26,0.02877
9.27,0.02932
9.28,0.02988
9.29,3.05E-02
9.3,0.03036
9.31,3.24E-02
9.32,3.50E-02
9.33,3.64E-02
9.34,3.74E-02
9.35,3.94E-02
9.36,0.0419
9.37,4.43E-02
9.38,4.65E-02
9.39,4.87E-02
9.4,5.04E-02
9.41,5.26E-02
9.42,5.71E-02
9.43,6.21E-02
9.44,0.06702
9.45,0.07219
9.46,0.0792
9.47,0.08829
9.48,0.0969
9.49,1.04E-01
9.5,1.12E-01
9.51,1.22E-01
9.52,0.13502
9.53,0.14916
9.54,0.16228
9.55,0.17611
9.56,0.1932
9.57,0.20983
9.58,0.22779
9.59,0.24673
9.6,0.26598
9.61,0.28435
9.62,0.30439
9.63,0.32793
9.64,0.34836
9.65,3.63E-01
9.66,3.75E-01
9.67,0.38857
9.68,0.40106
9.69,0.41273
9.7,0.42251
9.71,0.42262
9.72,0.41397
9.73,0.40584
9.74,0.39387
9.75,0.37443
9.76,0.35251
9.77,3.25E-01
9.78,2.92E-01
9.79,2.64E-01
9.8,2.40E-01
9.81,2.16E-01
9.82,0.19196
9.83,0.17069
9.84,0.15003
9.85,0.13226
9.86,0.11768
9.87,0.10586
9.88,0.09744
9.89,0.08791
9.9,0.07953
9.91,7.43E-02
9.92,6.85E-02
9.93,6.25E-02
9.94,0.05833
9.95,0.05566
9.96,0.05141
9.97,0.04757
9.98,0.0447
9.99,0.04266
10,0.0406
10.01,0.03829
10.02,0.0364
10.03,0.03452
10.04,0.03316
10.05,0.03221
10.06,0.03138
10.07,0.02982
10.08,0.02839
10.09,0.02763
10.1,0.02672
10.11,0.02582
10.12,0.02565
10.13,0.02467
10.14,0.02279
10.15,0.02185
10.16,0.02207
10.17,0.0224
10.18,0.02096
10.19,0.01988
10.2,0.02022
10.21,0.01949
10.22,0.01807
10.23,0.01733
10.24,0.01784
10.25,0.01829
10.26,0.01711
10.27,0.01629
10.28,0.01649
10.29,0.016
10.3,0.01529
10.31,0.01538
10.32,0.01556
10.33,0.0151
10.34,0.01504
10.35,0.01494
10.36,0.01452
10.37,0.01409
10.38,0.01335
10.39,0.01274
10.4,0.01323
10.41,0.01358
10.42,0.01253
10.43,0.0123
10.44,0.01265
10.45,0.01203
10.46,0.01158
10.47,0.01178
10.48,0.01175
10.49,0.0117
10.5,0.01154
10.51,0.01105
10.52,0.01128
10.53,0.01143
10.54,0.01024
10.55,0.01025
10.56,0.01197
10.57,0.01213
10.58,0.01158
10.59,0.01085
10.6,0.0102
10.61,0.01024
10.62,0.01016
10.63,0.00959
10.64,0.00904
10.65,0.00972
10.66,0.00995
10.67,0.01003
10.68,0.01066
10.69,0.01041
10.7,0.00984
10.71,0.0095
10.72,0.0091
10.73,0.00866
10.74,0.00843
10.75,0.00839
10.76,0.00853
10.77,0.00913
10.78,0.00922
10.79,0.00917
10.8,0.00948
10.81,0.00848
10.82,0.00777
10.83,0.00863
10.84,0.00916
10.85,0.00882
10.86,0.00833
10.87,0.00807
10.88,0.00837
10.89,0.0088
10.9,0.00855
10.91,0.00845
10.92,0.00876
10.93,0.00898
10.94,0.00924
10.95,0.00887
10.96,0.00773
10.97,0.00713
10.98,0.00764
10.99,0.00858
11,0.00839
11.01,0.00739
11.02,0.00713
11.03,0.00776
11.04,0.0087
11.05,0.00887
11.06,0.00902
11.07,0.00872
11.08,0.00791
11.09,0.00876
11.1,0.00998
11.11,0.0103
11.12,0.01017
11.13,0.00986
11.14,0.00938
11.15,0.00908
11.16,0.00957
11.17,0.00996
11.18,0.01015
11.19,0.01109
11.2,0.0124
11.21,0.01303
11.22,0.01275
11.23,0.01283
11.24,0.01354
11.25,0.01428
11.26,0.01542
11.27,0.01604
11.28,0.01563
11.29,0.01545
11.3,0.01654
11.31,0.01827
11.32,0.01995
11.33,0.02016
11.34,0.01948
11.35,0.02035
11.36,0.02131
11.37,0.02094
11.38,0.02061
11.39,0.02057
11.4,0.02005
11.41,0.01934
11.42,0.01929
11.43,0.01915
11.44,0.01768
11.45,0.01541
11.46,0.0137
11.47,0.01258
11.48,0.01184
11.49,0.01108
11.5,0.01033
11.51,0.00998
11.52,0.00956
11.53,0.00884
11.54,0.00799
11.55,0.00702
11.56,0.00722
11.57,0.00802
11.58,0.00817
11.59,0.00708
11.6,0.00613
11.61,0.00604
11.62,0.00617
11.63,0.00658
11.64,0.00617
11.65,0.00513
11.66,0.00562
11.67,0.00684
11.68,0.00685
11.69,0.00631
11.7,0.00605
11.71,0.00604
11.72,0.00552
11.73,0.005
11.74,0.00509
11.75,0.00584
11.76,0.00591
11.77,0.00527
11.78,0.00522
11.79,0.00549
11.8,0.00534
11.81,0.00547
11.82,0.00532
11.83,0.00484
11.84,0.00496
11.85,0.00547
11.86,0.00522
11.87,0.00443
11.88,0.00446
11.89,0.00456
11.9,0.00465
11.91,0.00461
11.92,0.00499
11.93,0.00526
11.94,0.00482
11.95,0.00448
11.96,0.00489
11.97,0.00528
11.98,0.00483
11.99,0.00435
12,0.00412
12.01,0.00393
12.02,0.00375
12.03,0.0037
12.04,0.00379
12.05,0.00412
12.06,0.00444
12.07,0.00475
12.08,0.00426
12.09,0.00406
12.1,0.00422
12.11,0.00435
12.12,0.00429
12.13,0.00394
12.14,0.00409
12.15,0.00421
12.16,0.0036
12.17,0.00292
12.18,0.00313
12.19,0.00363
12.2,0.004
12.21,0.00382
12.22,0.00354
12.23,0.0035
12.24,0.00388
12.25,0.00483
12.26,0.00541
12.27,0.00507
12.28,0.00423
12.29,0.00369
12.3,0.00385
12.31,0.00435
12.32,0.00449
12.33,0.00406
12.34,0.00333
12.35,0.00355
12.36,0.00436
12.37,0.00421
12.38,0.00408
12.39,0.00415
12.4,0.00385
12.41,0.00378
12.42,0.00379
12.43,0.00286
12.44,0.00289
12.45,0.00388
12.46,0.00397
12.47,0.00374
12.48,0.0035
12.49,0.00422
12.5,0.00518
12.51,0.00466
12.52,0.00427
12.53,0.00412
12.54,0.00339
12.55,0.00368
12.56,0.00414
12.57,0.00437
12.58,0.005
12.59,0.00427
12.6,0.00334
12.61,0.0039
12.62,0.00386
12.63,0.00376
12.64,0.00344
12.65,0.00318
12.66,0.00395
12.67,0.00421
12.68,0.00397
12.69,0.00413
12.7,0.00368
12.71,0.00338
12.72,0.00302
12.73,0.00336
12.74,0.00378
12.75,0.00354
12.76,0.004
12.77,0.00393
12.78,0.00374
12.79,0.00423
12.8,0.00455
12.81,0.00376
12.82,0.00375
12.83,0.00471
12.84,0.00521
12.85,0.00496
12.86,0.00422
12.87,0.00374
12.88,0.0044
12.89,0.00486
12.9,0.00465
12.91,0.00477
12.92,0.00566
12.93,0.00547
12.94,0.00466
12.95,0.00429
12.96,0.00438
12.97,0.0049
12.98,0.00531
12.99,0.00551
13,0.00507
13.01,0.00483
13.02,0.00552
13.03,0.00566
13.04,0.00566
13.05,0.00637
13.06,0.00648
13.07,0.0065
13.08,0.00623
13.09,0.00642
13.1,0.00722
13.11,0.00741
13.12,0.00712
13.13,0.0082
13.14,0.00859
13.15,0.00802
13.16,0.00818
13.17,0.00878
13.18,0.00846
13.19,0.00902
13.2,0.01067
13.21,0.01105
13.22,0.01092
13.23,0.01148
13.24,0.01218
13.25,0.01305
13.26,0.01379
13.27,0.01424
13.28,0.0147
13.29,0.01524
13.3,0.01654
13.31,0.01819
13.32,0.01919
13.33,0.01987
13.34,0.0204
13.35,0.02074
13.36,0.02273
13.37,0.02463
13.38,0.02658
13.39,0.02832
13.4,0.03063
13.41,0.03295
13.42,0.03498
13.43,0.03709
13.44,0.04103
13.45,0.04627
13.46,0.04999
13.47,0.05407
13.48,0.05923
13.49,0.06301
13.5,0.06869
13.51,0.07588
13.52,0.08354
13.53,0.09179
13.54,0.10057
13.55,0.11015
13.56,0.11921
13.57,0.12937
13.58,0.14002
13.59,0.15253
13.6,0.16562
13.61,0.17858
13.62,0.18966
13.63,0.20234
13.64,0.21514
13.65,0.22962
13.66,0.24475
13.67,0.25914
13.68,0.27334
13.69,0.28138
13.7,0.29213
13.71,0.30465
13.72,0.3102
13.73,0.31066
13.74,0.3111
13.75,0.3061
13.76,0.3042
13.77,0.29809
13.78,0.28498
13.79,0.26939
13.8,0.25312
13.81,0.23114
13.82,0.20935
13.83,0.1895
13.84,0.17166
13.85,0.15237
13.86,0.13452
13.87,0.11819
13.88,0.1054
13.89,0.0947
13.9,0.08338
13.91,0.07426
13.92,0.06868
13.93,0.06289
13.94,0.0544
13.95,0.04902
13.96,0.04713
13.97,0.04492
13.98,0.04246
13.99,0.04074
14,0.03871
14.01,0.03464
14.02,0.03328
14.03,0.03333
14.04,0.03021
14.05,0.02733
14.06,0.02735
14.07,0.02678
14.08,0.02426
14.09,0.02317
14.1,0.02247
14.11,0.02182
14.12,0.02134
14.13,0.02036
14.14,0.02027
14.15,0.0199
14.16,0.01975
14.17,0.01955
14.18,0.01878
14.19,0.01832
14.2,0.01843
14.21,0.01747
14.22,0.01644
14.23,0.01565
14.24,0.01513
14.25,0.01449
14.26,0.01438
14.27,0.01435
14.28,0.01349
14.29,0.01338
14.3,0.01322
14.31,0.01363
14.32,0.01319
14.33,0.01253
14.34,0.01281
14.35,0.01296
14.36,0.01387
14.37,0.01395
14.38,0.01276
14.39,0.01208
14.4,0.0121
14.41,0.01347
14.42,0.01285
14.43,0.01322
14.44,0.01368
14.45,0.01297
14.46,0.01343
14.47,0.01355
14.48,0.01411
14.49,0.01407
14.5,0.01358
14.51,0.01317
14.52,0.01402
14.53,0.01452
14.54,0.01396
14.55,0.01406
14.56,0.01456
14.57,0.0148
14.58,0.01486
14.59,0.01508
14.6,0.01486
14.61,0.01487
14.62,0.01471
14.63,0.01618
14.64,0.01628
14.65,0.01651
14.66,0.01825
14.67,0.01859
14.68,0.01966
14.69,0.02008
14.7,0.02011
14.71,0.02107
14.72,0.02135
14.73,0.02253
14.74,0.0236
14.75,0.02559
14.76,0.02757
14.77,0.02877
14.78,0.03092
14.79,0.03234
14.8,0.03279
14.81,0.03455
14.82,0.03533
14.83,0.03875
14.84,0.04165
14.85,0.043
14.86,0.04401
14.87,0.04656
14.88,0.04869
14.89,0.05105
14.9,0.05165
14.91,0.05237
14.92,0.05526
14.93,0.05747
14.94,0.05747
14.95,0.05807
14.96,0.06004
14.97,0.06056
14.98,0.06161
14.99,0.06282
15,0.06146
15.01,0.06193
15.02,0.06232
15.03,0.06177
15.04,0.06285
15.05,0.06201
15.06,0.06413
15.07,0.06369
15.08,0.06525
15.09,0.06765
15.1,0.0701
15.11,0.0715
15.12,0.0744
15.13,0.07913
15.14,0.08372
15.15,0.08907
15.16,0.09534
15.17,0.09827
15.18,0.10431
15.19,0.11138
15.2,0.11882
15.21,0.12417
15.22,0.12876
15.23,0.13542
15.24,0.14608
15.25,0.1539
15.26,0.15869
15.27,0.16517
15.28,0.16969
15.29,0.17839
15.3,0.18468
15.31,0.19014
15.32,0.19064
15.33,0.1903
15.34,0.18945
15.35,0.1891
15.36,0.18694
15.37,0.1815
15.38,0.17573
15.39,0.16802
15.4,0.15611
15.41,0.14353
15.42,0.13224
15.43,0.11937
15.44,0.10917
15.45,0.09705
15.46,0.08646
15.47,0.07499
15.48,0.0674
15.49,0.05889
15.5,0.05271
15.51,0.04973
15.52,0.04299
15.53,0.03871
15.54,0.03616
15.55,0.03491
15.56,0.03188
15.57,0.03006
15.58,0.02996
15.59,0.02837
15.6,0.02693
15.61,0.02486
15.62,0.02353
15.63,0.02257
15.64,0.02122
15.65,0.02064
15.66,0.02024
15.67,0.01871
15.68,0.01809
15.69,0.01733
15.7,0.01557
15.71,0.01687
15.72,0.01662
15.73,0.01707
15.74,0.01706
15.75,0.01547
15.76,0.01469
15.77,0.01542
15.78,0.01464
15.79,0.01398
15.8,0.01342
15.81,0.01273
15.82,0.01134
15.83,0.01144
15.84,0.0123
15.85,0.01293
15.86,0.01288
15.87,0.0124
15.88,0.01128
15.89,0.0106
15.9,0.01103
15.91,0.01085
15.92,0.01086
15.93,0.01142
15.94,0.01107
15.95,0.01084
15.96,0.01107
15.97,0.01149
15.98,0.01137
15.99,0.01058
16,0.01027
16.01,0.0107
16.02,0.01062
16.03,0.01001
16.04,0.01027
16.05,0.01037
16.06,0.01063
16.07,0.01028
16.08,0.00975
16.09,0.00988
16.1,0.01045
16.11,0.01068
16.12,0.0104
16.13,0.00983
16.14,0.00965
16.15,0.01062
16.16,0.00973
16.17,0.00888
16.18,0.0095
16.19,0.00993
16.2,0.01012
16.21,0.00938
16.22,0.00869
16.23,0.01023
16.24,0.01069
16.25,0.0097
16.26,0.00912
16.27,0.00808
16.28,0.01001
16.29,0.0103
16.3,0.00968
16.31,0.00856
16.32,0.00929
16.33,0.01062
16.34,0.01054
16.35,0.01003
16.36,0.00969
16.37,0.01006
16.38,0.00958
16.39,0.00993
16.4,0.00868
16.41,0.00893
16.42,0.00929
16.43,0.00912
16.44,0.00993
16.45,0.01083
16.46,0.00979
16.47,0.00939
16.48,0.00959
16.49,0.01038
16.5,0.01047
16.51,0.01058
16.52,0.01066
16.53,0.0107
16.54,0.01008
16.55,0.011
16.56,0.01064
16.57,0.01038
16.58,0.01042
16.59,0.01041
16.6,0.01103
16.61,0.01195
16.62,0.01074
16.63,0.01149
16.64,0.01212
16.65,0.01258
16.66,0.01261
16.67,0.01244
16.68,0.0122
16.69,0.0137
16.7,0.01381
16.71,0.01295
16.72,0.0135
16.73,0.01386
16.74,0.01411
16.75,0.01578
16.76,0.01517
16.77,0.01425
16.78,0.01418
16.79,0.01456
16.8,0.01547
16.81,0.01486
16.82,0.01533
16.83,0.01555
16.84,0.01651
16.85,0.01618
16.86,0.01668
16.87,0.01651
16.88,0.0161
16.89,0.015
16.9,0.01469
16.91,0.01473
16.92,0.0149
16.93,0.01333
16.94,0.01312
16.95,0.01225
16.96,0.0123
16.97,0.01266
16.98,0.01281
16.99,0.01261
17,0.01205
17.01,0.01133
17.02,0.01046
17.03,0.01101
17.04,0.01034
17.05,0.00959
17.06,0.01094
17.07,0.01121
17.08,0.01046
17.09,0.0105
17.1,0.01034
17.11,0.01058
17.12,0.01086
17.13,0.00967
17.14,0.0105
17.15,0.00975
17.16,0.00899
17.17,0.00978
17.18,0.01026
17.19,0.00998
17.2,0.01113
17.21,0.00972
17.22,0.00954
17.23,0.00931
17.24,0.00974
17.25,0.00998
17.26,0.011
17.27,0.01125
17.28,0.01047
17.29,0.01148
17.3,0.01138
17.31,0.01001
17.32,0.00975
17.33,0.0113
17.34,0.01145
17.35,0.01266
17.36,0.01199
17.37,0.01132
17.38,0.01145
17.39,0.0113
17.4,0.01126
17.41,0.01188
17.42,0.0112
17.43,0.01237
17.44,0.0118
17.45,0.01205
17.46,0.01248
17.47,0.01249
17.48,0.01326
17.49,0.01348
17.5,0.01341
17.51,0.01513
17.52,0.01593
17.53,0.01539
17.54,0.01643
17.55,0.01656
17.56,0.01728
17.57,0.01751
17.58,0.01976
17.59,0.01934
17.6,0.01886
17.61,0.02069
17.62,0.0206
17.63,0.02199
17.64,0.02346
17.65,0.02475
17.66,0.02595
17.67,0.02582
17.68,0.02829
17.69,0.03002
17.7,0.03109
17.71,0.03329
17.72,0.03429
17.73,0.03509
17.74,0.03641
17.75,0.03736
17.76,0.03868
17.77,0.04022
17.78,0.0404
17.79,0.04137
17.8,0.04304
17.81,0.04412
17.82,0.04531
17.83,0.04521
17.84,0.04379
17.85,0.04567
17.86,0.04506
17.87,0.04459
17.88,0.04463
17.89,0.04302
17.9,0.03987
17.91,0.03873
17.92,0.03825
17.93,0.0373
17.94,0.03393
17.95,0.03232
17.96,0.03157
17.97,0.02864
17.98,0.02815
17.99,0.02573
18,0.02285
18.01,0.02255
18.02,0.02334
18.03,0.02208
18.04,0.02054
18.05,0.01841
18.06,0.01938
18.07,0.01833
18.08,0.01636
18.09,0.01702
18.1,0.01669
18.11,0.01593
18.12,0.01495
18.13,0.0142
18.14,0.01438
18.15,0.01409
18.16,0.01291
18.17,0.01331
18.18,0.01369
18.19,0.01345
18.2,0.01334
18.21,0.01231
18.22,0.0132
18.23,0.01368
18.24,0.01278
18.25,0.01311
18.26,0.01219
18.27,0.01276
18.28,0.01327
18.29,0.01242
18.3,0.01156
18.31,0.0124
18.32,0.01124
18.33,0.01172
18.34,0.01213
18.35,0.01176
18.36,0.01239
18.37,0.01211
18.38,0.01147
18.39,0.01145
18.4,0.01004
18.41,0.01055
18.42,0.0108
18.43,0.01185
18.44,0.01164
18.45,0.01
18.46,0.0106
18.47,0.01194
18.48,0.01155
18.49,0.01173
18.5,0.01174
18.51,0.01133
18.52,0.01122
18.53,0.01108
18.54,0.01164
18.55,0.01197
18.56,0.01198
18.57,0.01103
18.58,0.01116
18.59,0.01135
18.6,0.01026
18.61,0.01003
18.62,0.01009
18.63,0.01208
18.64,0.01138
18.65,0.01178
18.66,0.01169
18.67,0.01219
18.68,0.01249
18.69,0.01277
18.7,0.01185
18.71,0.01176
18.72,0.01114
18.73,0.01062
18.74,0.01047
18.75,0.01099
18.76,0.011
18.77,0.01045
18.78,0.01001
18.79,0.00994
18.8,0.01089
18.81,0.01126
18.82,0.01113
18.83,0.0107
18.84,0.01183
18.85,0.01245
18.86,0.01263
18.87,0.01265
18.88,0.01184
18.89,0.01055
18.9,0.01163
18.91,0.01168
18.92,0.01188
18.93,0.01232
18.94,0.0129
18.95,0.01153
18.96,0.01166
18.97,0.01239
18.98,0.01234
18.99,0.0131
19,0.01297
19.01,0.01229
19.02,0.01268
19.03,0.01421
19.04,0.01469
19.05,0.01447
19.06,0.01374
19.07,0.01218
19.08,0.0134
19.09,0.0145
19.1,0.01541
19.11,0.01526
19.12,0.01624
19.13,0.01822
19.14,0.01704
19.15,0.01695
19.16,0.0167
19.17,0.01701
19.18,0.01834
19.19,0.01977
19.2,0.01911
19.21,0.01865
19.22,0.01931
19.23,0.021
19.24,0.02288
19.25,0.02373
19.26,0.02349
19.27,0.0239
19.28,0.02378
19.29,0.02465
19.3,0.02454
19.31,0.02641
19.32,0.02881
19.33,0.02896
19.34,0.02958
19.35,0.03007
19.36,0.02989
19.37,0.03111
19.38,0.03106
19.39,0.03104
19.4,0.03268
19.41,0.03316
19.42,0.03403
19.43,0.03379
19.44,0.03182
19.45,0.03238
19.46,0.03323
19.47,0.03369
19.48,0.03247
19.49,0.03105
19.5,0.03105
19.51,0.03041
19.52,0.02879
19.53,0.02806
19.54,0.02708
19.55,0.02568
19.56,0.02317
19.57,0.02198
19.58,0.02253
19.59,0.02181
19.6,0.02047
19.61,0.01944
19.62,0.0194
19.63,0.02003
19.64,0.01932
19.65,0.01812
19.66,0.01786
19.67,0.01631
19.68,0.01604
19.69,0.01538
19.7,0.01532
19.71,0.01705
19.72,0.01716
19.73,0.01699
19.74,0.01711
19.75,0.01636
19.76,0.01707
19.77,0.01699
19.78,0.01666
19.79,0.0158
19.8,0.01608
19.81,0.01666
19.82,0.01717
19.83,0.01667
19.84,0.01683
19.85,0.01827
19.86,0.01848
19.87,0.0192
19.88,0.01891
19.89,0.01892
19.9,0.0199
19.91,0.01926
19.92,0.01937
19.93,0.02057
19.94,0.02096
19.95,0.02184
19.96,0.02386
19.97,0.02458
19.98,0.02571
19.99,0.02627
20,0.02839
20.01,0.03048
20.02,0.03188
20.03,0.03312
20.04,0.03452
20.05,0.03436
20.06,0.03426
20.07,0.03574
20.08,0.0378
20.09,0.04112
20.1,0.04402
20.11,0.04528
20.12,0.04605
20.13,0.04863
20.14,0.05179
20.15,0.05377
20.16,0.05707
20.17,0.06208
20.18,0.06552
20.19,0.06857
20.2,0.07035
20.21,0.07246
20.22,0.07399
20.23,0.07638
20.24,0.07972
20.25,0.08366
20.26,0.08639
20.27,0.08936
20.28,0.0938
20.29,0.0975
20.3,0.09918
20.31,0.10053
20.32,0.10193
20.33,0.10301
20.34,0.10295
20.35,0.10347
20.36,0.10489
20.37,0.10447
20.38,0.10158
20.39,0.10018
20.4,0.09874
20.41,0.09506
20.42,0.09191
20.43,0.08849
20.44,0.08399
20.45,0.08151
20.46,0.07961
20.47,0.07793
20.48,0.07613
20.49,0.07338
20.5,0.07127
20.51,0.06958
20.52,0.06789
20.53,0.06792
20.54,0.06755
20.55,0.06828
20.56,0.06936
20.57,0.06995
20.58,0.06859
20.59,0.06732
20.6,0.06544
20.61,0.06481
20.62,0.06438
20.63,0.06445
20.64,0.06661
20.65,0.06685
20.66,0.06563
20.67,0.06374
20.68,0.06089
20.69,0.05835
20.7,0.055
20.71,0.052
20.72,0.04825
20.73,0.04413
20.74,0.04032
20.75,0.03751
20.76,0.03454
20.77,0.0313
20.78,0.02948
20.79,0.0288
20.8,0.02669
20.81,0.02582
20.82,0.02538
20.83,0.02328
20.84,0.02209
20.85,0.02093
20.86,0.01988
20.87,0.01981
20.88,0.02024
20.89,0.01998
20.9,0.01966
20.91,0.01892
20.92,0.01711
20.93,0.01655
20.94,0.01675
20.95,0.01612
20.96,0.01599
20.97,0.01574
20.98,0.01534
20.99,0.01563
21,0.01604
21.01,0.01619
21.02,0.01627
21.03,0.01509
21.04,0.01357
21.05,0.014
21.06,0.01499
21.07,0.01554
21.08,0.0152
21.09,0.01483
21.1,0.01419
21.11,0.01304
21.12,0.01253
21.13,0.01261
21.14,0.01352
21.15,0.01406
21.16,0.01343
21.17,0.01346
21.18,0.01345
21.19,0.01286
21.2,0.01323
21.21,0.01313
21.22,0.01268
21.23,0.01302
21.24,0.01303
21.25,0.01292
21.26,0.01316
21.27,0.01303
21.28,0.01266
21.29,0.01258
21.3,0.01272
21.31,0.01214
21.32,0.01171
21.33,0.0125
21.34,0.01322
21.35,0.01286
21.36,0.01275
21.37,0.01208
21.38,0.01132
21.39,0.01244
21.4,0.01288
21.41,0.01195
21.42,0.01135
21.43,0.01126
21.44,0.01172
21.45,0.01191
21.46,0.01215
21.47,0.01253
21.48,0.01237
21.49,0.01188
21.5,0.01209
21.51,0.01305
21.52,0.01324
21.53,0.01311
21.54,0.01366
21.55,0.01395
21.56,0.01336
21.57,0.01344
21.58,0.01371
21.59,0.01327
21.6,0.01327
21.61,0.01389
21.62,0.01447
21.63,0.01441
21.64,0.01347
21.65,0.01309
21.66,0.01399
21.67,0.01502
21.68,0.01529
21.69,0.01487
21.7,0.01542
21.71,0.0162
21.72,0.01581
21.73,0.01501
21.74,0.01441
21.75,0.01503
21.76,0.01651
21.77,0.0165
21.78,0.01522
21.79,0.01459
21.8,0.01584
21.81,0.0172
21.82,0.01668
21.83,0.01608
21.84,0.01564
21.85,0.01564
21.86,0.0165
21.87,0.01597
21.88,0.01451
21.89,0.01446
21.9,0.01496
21.91,0.01463
21.92,0.01443
21.93,0.01437
21.94,0.01399
21.95,0.0141
21.96,0.01466
21.97,0.01533
21.98,0.0158
21.99,0.0163
22,0.01588
22.01,0.0153
22.02,0.01596
22.03,0.01595
22.04,0.01555
22.05,0.01622
22.06,0.01703
22.07,0.01813
22.08,0.01877
22.09,0.01831
22.1,0.01795
22.11,0.01812
22.12,0.01838
22.13,0.01845
22.14,0.01971
22.15,0.02025
22.16,0.0201
22.17,0.02122
22.18,0.02311
22.19,0.02427
22.2,0.02507
22.21,0.0265
22.22,0.02732
22.23,0.02812
22.24,0.02922
22.25,0.02905
22.26,0.02982
22.27,0.03177
22.28,0.03357
22.29,0.03526
22.3,0.03771
22.31,0.04026
22.32,0.04132
22.33,0.0415
22.34,0.04228
22.35,0.0444
22.36,0.04716
22.37,0.04991
22.38,0.0515
22.39,0.05265
22.4,0.05439
22.41,0.05551
22.42,0.05723
22.43,0.05961
22.44,0.0621
22.45,0.06558
22.46,0.07001
22.47,0.07298
22.48,0.07388
22.49,0.07522
22.5,0.07799
22.51,0.08013
22.52,0.08165
22.53,0.08393
22.54,0.08471
22.55,0.08508
22.56,0.0851
22.57,0.08538
22.58,0.08371
22.59,0.08201
22.6,0.08308
22.61,0.083
22.62,0.07927
22.63,0.07726
22.64,0.07662
22.65,0.07479
22.66,0.07345
22.67,0.07113
22.68,0.06843
22.69,0.06523
22.7,0.0625
22.71,0.06007
22.72,0.05815
22.73,0.05671
22.74,0.05517
22.75,0.05281
22.76,0.04925
22.77,0.04762
22.78,0.04836
22.79,0.04751
22.8,0.04625
22.81,0.04594
22.82,0.04568
22.83,0.04415
22.84,0.0425
22.85,0.04229
22.86,0.04198
22.87,0.04089
22.88,0.03968
22.89,0.03825
22.9,0.03709
22.91,0.03591
22.92,0.03321
22.93,0.03112
22.94,0.03087
22.95,0.02959
22.96,0.02837
22.97,0.02575
22.98,0.02414
22.99,0.02248
23,0.02153
23.01,0.02085
23.02,0.01991
23.03,0.01919
23.04,0.01871
23.05,0.01894
23.06,0.01731
23.07,0.01687
23.08,0.01668
23.09,0.01667
23.1,0.01595
23.11,0.01466
23.12,0.01482
23.13,0.01456
23.14,0.01441
23.15,0.01419
23.16,0.01426
23.17,0.01517
23.18,0.01481
23.19,0.01321
23.2,0.01316
23.21,0.01406
23.22,0.01344
23.23,0.01249
23.24,0.01225
23.25,0.01244
23.26,0.01222
23.27,0.01144
23.28,0.01203
23.29,0.01145
23.3,0.01106
23.31,0.01181
23.32,0.01159
23.33,0.0115
23.34,0.01129
23.35,0.01133
23.36,0.01182
23.37,0.01113
23.38,0.01136
23.39,0.01105
23.4,0.01124
23.41,0.01128
23.42,0.01062
23.43,0.01067
23.44,0.01151
23.45,0.01128
23.46,0.01089
23.47,0.01171
23.48,0.01213
23.49,0.01248
23.5,0.01253
23.51,0.01131
23.52,0.01051
23.53,0.0115
23.54,0.01256
23.55,0.01202
23.56,0.01152
23.57,0.01169
23.58,0.01183
23.59,0.01149
23.6,0.01213
23.61,0.01257
23.62,0.01213
23.63,0.0123
23.64,0.01175
23.65,0.01143
23.66,0.01147
23.67,0.01205
23.68,0.01254
23.69,0.01241
23.7,0.01219
23.71,0.01115
23.72,0.01247
23.73,0.01366
23.74,0.01398
23.75,0.01342
23.76,0.01344
23.77,0.0133
23.78,0.01297
23.79,0.0133
23.8,0.0145
23.81,0.01507
23.82,0.01477
23.83,0.01384
23.84,0.0152
23.85,0.0156
23.86,0.01465
23.87,0.01559
23.88,0.01591
23.89,0.01516
23.9,0.01451
23.91,0.01413
23.92,0.01413
23.93,0.01432
23.94,0.0133
23.95,0.01251
23.96,0.01364
23.97,0.01415
23.98,0.01439
23.99,0.0133
24,0.0127
24.01,0.0127
24.02,0.01316
24.03,0.01319
24.04,0.01338
24.05,0.01339
24.06,0.01398
24.07,0.01441
24.08,0.01536
24.09,0.01512
24.1,0.01386
24.11,0.01447
24.12,0.01442
24.13,0.01514
24.14,0.01523
24.15,0.01467
24.16,0.01472
24.17,0.01578
24.18,0.01794
24.19,0.01719
24.2,0.01806
24.21,0.0189
24.22,0.01869
24.23,0.01943
24.24,0.01941
24.25,0.01956
24.26,0.02102
24.27,0.02268
24.28,0.02285
24.29,0.0229
24.3,0.02527
24.31,0.02601
24.32,0.02602
24.33,0.02791
24.34,0.02881
24.35,0.03042
24.36,0.03253
24.37,0.03311
24.38,0.03374
24.39,0.03405
24.4,0.03527
24.41,0.0376
24.42,0.04102
24.43,0.04136
24.44,0.04221
24.45,0.04467
24.46,0.04557
24.47,0.04747
24.48,0.04909
24.49,0.04999
24.5,0.05209
24.51,0.05379
24.52,0.05493
24.53,0.05722
24.54,0.05878
24.55,0.06037
24.56,0.06073
24.57,0.06203
24.58,0.06217
24.59,0.06305
24.6,0.06632
24.61,0.06814
24.62,0.06409
24.63,0.06173
24.64,0.06433
24.65,0.0633
24.66,0.06171
24.67,0.05941
24.68,0.05731
24.69,0.05449
24.7,0.05168
24.71,0.05054
24.72,0.04712
24.73,0.04571
24.74,0.04242
24.75,0.03918
24.76,0.0377
24.77,0.03672
24.78,0.03318
24.79,0.0301
24.8,0.03036
24.81,0.03092
24.82,0.02767
24.83,0.0263
24.84,0.02615
24.85,0.02424
24.86,0.02331
24.87,0.02242
24.88,0.02301
24.89,0.02207
24.9,0.02106
24.91,0.02089
24.92,0.01958
24.93,0.0187
24.94,0.01815
24.95,0.01767
24.96,0.01758
24.97,0.01746
24.98,0.01756
24.99,0.01663
25,0.01494
25.01,0.0148
25.02,0.01641
25.03,0.01606
25.04,0.01522
25.05,0.01361
25.06,0.01285
25.07,0.01414
25.08,0.01422
25.09,0.01389
25.1,0.01427
25.11,0.01299
25.12,0.01188
25.13,0.01315
25.14,0.01345
25.15,0.01346
25.16,0.01297
25.17,0.01235
25.18,0.012
25.19,0.01187
25.2,0.01208
25.21,0.01187
25.22,0.01093
25.23,0.01084
25.24,0.0124
25.25,0.01157
25.26,0.01085
25.27,0.01279
25.28,0.01307
25.29,0.01265
25.3,0.0118
25.31,0.01153
25.32,0.01152
25.33,0.0128
25.34,0.01245
25.35,0.01144
25.36,0.01121
25.37,0.0119
25.38,0.01286
25.39,0.01302
25.4,0.01319
25.41,0.01275
25.42,0.01318
25.43,0.01345
25.44,0.01352
25.45,0.01314
25.46,0.01465
25.47,0.0146
25.48,0.01446
25.49,0.01493
25.5,0.01525
25.51,0.01524
25.52,0.01518
25.53,0.01589
25.54,0.01613
25.55,0.01649
25.56,0.0167
25.57,0.01789
25.58,0.01834
25.59,0.01757
25.6,0.01855
25.61,0.01809
25.62,0.01908
25.63,0.01999
25.64,0.01972
25.65,0.02068
25.66,0.02238
25.67,0.02115
25.68,0.02127
25.69,0.02243
25.7,0.02422
25.71,0.02414
25.72,0.02597
25.73,0.0247
25.74,0.02335
25.75,0.02493
25.76,0.02664
25.77,0.02803
25.78,0.0269
25.79,0.02586
25.8,0.02656
25.81,0.02783
25.82,0.02773
25.83,0.02847
25.84,0.02711
25.85,0.02666
25.86,0.02599
25.87,0.02648
25.88,0.02684
25.89,0.02642
25.9,0.02727
25.91,0.02523
25.92,0.02521
25.93,0.02487
25.94,0.02408
25.95,0.0241
25.96,0.02406
25.97,0.02371
25.98,0.02305
25.99,0.02325
26,0.02368
26.01,0.02389
26.02,0.02593
26.03,0.0267
26.04,0.02688
26.05,0.02552
26.06,0.02469
26.07,0.02656
26.08,0.02893
26.09,0.02825
26.1,0.03002
26.11,0.0305
26.12,0.03188
26.13,0.03433
26.14,0.03601
26.15,0.03599
26.16,0.03647
26.17,0.03886
26.18,0.03954
26.19,0.04099
26.2,0.04378
26.21,0.0478
26.22,0.04806
26.23,0.04948
26.24,0.05107
26.25,0.05492
26.26,0.0592
26.27,0.06132
26.28,0.06206
26.29,0.06402
26.3,0.06572
26.31,0.06953
26.32,0.07087
26.33,0.07506
26.34,0.07736
26.35,0.07995
26.36,0.08152
26.37,0.08602
26.38,0.0904
26.39,0.09281
26.4,0.09689
26.41,0.10018
26.42,0.10173
26.43,0.10392
26.44,0.10681
26.45,0.10831
26.46,0.10992
26.47,0.1122
26.48,0.11516
26.49,0.11847
26.5,0.11573
26.51,0.11531
26.52,0.11684
26.53,0.11377
26.54,0.11071
26.55,0.10794
26.56,0.10544
26.57,0.10127
26.58,0.096
26.59,0.09197
26.6,0.08825
26.61,0.08264
26.62,0.07746
26.63,0.07345
26.64,0.06948
26.65,0.06437
26.66,0.05873
26.67,0.05436
26.68,0.05168
26.69,0.04768
26.7,0.04475
26.71,0.04162
26.72,0.0386
26.73,0.0377
26.74,0.03627
26.75,0.03399
26.76,0.03343
26.77,0.03163
26.78,0.03029
26.79,0.0283
26.8,0.02663
26.81,0.02576
26.82,0.02511
26.83,0.02488
26.84,0.02339
26.85,0.02243
26.86,0.02084
26.87,0.01994
26.88,0.01956
26.89,0.01917
26.9,0.01925
26.91,0.01725
26.92,0.01648
26.93,0.01687
26.94,0.01699
26.95,0.01583
26.96,0.0151
26.97,0.01514
26.98,0.0145
26.99,0.0142
27,0.01517
27.01,0.01424
27.02,0.01381
27.03,0.01394
27.04,0.01321
27.05,0.01292
27.06,0.01243
27.07,0.01092
27.08,0.0116
27.09,0.01287
27.1,0.0126
27.11,0.01341
27.12,0.01279
27.13,0.01079
27.14,0.01058
27.15,0.01098
27.16,0.01164
27.17,0.01233
27.18,0.01171
27.19,0.01157
27.2,0.01109
27.21,0.0112
27.22,0.01071
27.23,0.01048
27.24,0.01011
27.25,0.00957
27.26,0.00981
27.27,0.01009
27.28,0.01071
27.29,0.01108
27.3,0.01015
27.31,0.01015
27.32,0.01028
27.33,0.01131
27.34,0.01132
27.35,0.01009
27.36,0.00937
27.37,0.0097
27.38,0.00973
27.39,0.0092
27.4,0.00825
27.41,0.00874
27.42,0.01003
27.43,0.01037
27.44,0.00967
27.45,0.00962
27.46,0.01013
27.47,0.00964
27.48,0.00965
27.49,0.01056
27.5,0.00922
27.51,0.00905
27.52,0.00988
27.53,0.01089
27.54,0.01007
27.55,0.00922
27.56,0.00955
27.57,0.01055
27.58,0.01073
27.59,0.01118
27.6,0.01125
27.61,0.00986
27.62,0.00951
27.63,0.01041
27.64,0.01007
27.65,0.00956
27.66,0.01045
27.67,0.01021
27.68,0.01002
27.69,0.00984
27.7,0.01026
27.71,0.01163
27.72,0.01123
27.73,0.01082
27.74,0.01084
27.75,0.01062
27.76,0.01016
27.77,0.01037
27.78,0.01029
27.79,0.0106
27.8,0.01126
27.81,0.01282
27.82,0.01205
27.83,0.01184
27.84,0.01254
27.85,0.01286
27.86,0.01269
27.87,0.01198
27.88,0.01271
27.89,0.01435
27.9,0.01473
27.91,0.014
27.92,0.01439
27.93,0.01516
27.94,0.01468
27.95,0.01446
27.96,0.01551
27.97,0.01604
27.98,0.01687
27.99,0.01796
28,0.01769
28.01,0.01817
28.02,0.01892
28.03,0.01895
28.04,0.01921
28.05,0.02002
28.06,0.02081
28.07,0.0223
28.08,0.02317
28.09,0.02327
28.1,0.02359
28.11,0.02399
28.12,0.02479
28.13,0.02529
28.14,0.0257
28.15,0.02689
28.16,0.02841
28.17,0.02959
28.18,0.03033
28.19,0.03041
28.2,0.03131
28.21,0.03178
28.22,0.03255
28.23,0.0331
28.24,0.03413
28.25,0.03354
28.26,0.033
28.27,0.03369
28.28,0.03453
28.29,0.03463
28.3,0.03399
28.31,0.03355
28.32,0.03413
28.33,0.0342
28.34,0.03322
28.35,0.03255
28.36,0.03112
28.37,0.02981
28.38,0.02919
28.39,0.02737
28.4,0.02628
28.41,0.02654
28.42,0.02608
28.43,0.02623
28.44,0.02548
28.45,0.02375
28.46,0.023
28.47,0.02243
28.48,0.02107
28.49,0.0195
28.5,0.01895
28.51,0.01872
28.52,0.01796
28.53,0.01709
28.54,0.01728
28.55,0.01771
28.56,0.01732
28.57,0.01737
28.58,0.01625
28.59,0.01516
28.6,0.01452
28.61,0.01415
28.62,0.01491
28.63,0.01501
28.64,0.01392
28.65,0.01294
28.66,0.01273
28.67,0.01314
28.68,0.01416
28.69,0.0147
28.7,0.01399
28.71,0.01236
28.72,0.01167
28.73,0.01121
28.74,0.01031
28.75,0.01028
28.76,0.01016
28.77,0.01006
28.78,0.00995
28.79,0.01009
28.8,0.01021
28.81,0.01025
28.82,0.01087
28.83,0.01142
28.84,0.01156
28.85,0.01148
28.86,0.01059
28.87,0.01026
28.88,0.01059
28.89,0.01075
28.9,0.01118
28.91,0.01085
28.92,0.0107
28.93,0.01113
28.94,0.01167
28.95,0.01231
28.96,0.01276
28.97,0.01211
28.98,0.01133
28.99,0.01099
29,0.01254
29.01,0.01349
29.02,0.01242
29.03,0.01262
29.04,0.01337
29.05,0.01325
29.06,0.01432
29.07,0.01434
29.08,0.01324
29.09,0.013
29.1,0.01348
29.11,0.01477
29.12,0.01523
29.13,0.01536
29.14,0.01636
29.15,0.01725
29.16,0.01696
29.17,0.01652
29.18,0.01756
29.19,0.01789
29.2,0.01752
29.21,0.01824
29.22,0.01893
29.23,0.01971
29.24,0.02031
29.25,0.01974
29.26,0.01906
29.27,0.01891
29.28,0.01973
29.29,0.02075
29.3,0.02026
29.31,0.02077
29.32,0.02215
29.33,0.02321
29.34,0.02375
29.35,0.02343
29.36,0.02324
29.37,0.02387
29.38,0.02398
29.39,0.02289
29.4,0.02201
29.41,0.02237
29.42,0.02271
29.43,0.0224
29.44,0.02307
29.45,0.02322
29.46,0.02219
29.47,0.02179
29.48,0.02144
29.49,0.02172
29.5,0.02263
29.51,0.0237
29.52,0.02476
29.53,0.02489
29.54,0.0249
29.55,0.02471
29.56,0.02474
29.57,0.0252
29.58,0.02569
29.59,0.02709
29.6,0.0285
29.61,0.03002
29.62,0.03104
29.63,0.03113
29.64,0.03171
29.65,0.03308
29.66,0.03489
29.67,0.03666
29.68,0.03748
29.69,0.03825
29.7,0.03908
29.71,0.03994
29.72,0.04222
29.73,0.04398
29.74,0.04442
29.75,0.04503
29.76,0.04598
29.77,0.0473
29.78,0.04989
29.79,0.05297
29.8,0.05525
29.81,0.05656
29.82,0.05833
29.83,0.05998
29.84,0.06103
29.85,0.06259
29.86,0.06496
29.87,0.06726
29.88,0.06819
29.89,0.06997
29.9,0.07327
29.91,0.07418
29.92,0.07476
29.93,0.07593
29.94,0.07527
29.95,0.07573
29.96,0.0772
29.97,0.0767
29.98,0.07568
29.99,0.07509
30,0.07314
30.01,0.06984
30.02,0.06715
30.03,0.06532
30.04,0.06341
30.05,0.06181
30.06,0.05931
30.07,0.05562
30.08,0.05273
30.09,0.04934
30.1,0.04583
30.11,0.04409
30.12,0.0427
30.13,0.04009
30.14,0.03779
30.15,0.03639
30.16,0.03453
30.17,0.03154
30.18,0.02949
30.19,0.02814
30.2,0.02694
30.21,0.02583
30.22,0.02485
30.23,0.02431
30.24,0.02379
30.25,0.02224
30.26,0.02057
30.27,0.01955
30.28,0.0198
30.29,0.02001
30.3,0.01917
30.31,0.01863
30.32,0.01795
30.33,0.01718
30.34,0.01624
30.35,0.01615
30.36,0.0152
30.37,0.01409
30.38,0.0138
30.39,0.01395
30.4,0.01402
30.41,0.01331
30.42,0.01337
30.43,0.01357
30.44,0.01251
30.45,0.01245
30.46,0.0126
30.47,0.01236
30.48,0.0124
30.49,0.01228
30.5,0.01188
30.51,0.01173
30.52,0.01149
30.53,0.01201
30.54,0.01093
30.55,0.01076
30.56,0.0108
30.57,0.01065
30.58,0.01039
30.59,0.00971
30.6,0.01003
30.61,0.01053
30.62,0.01055
30.63,0.01071
30.64,0.01003
30.65,0.00974
30.66,0.00997
30.67,0.0098
30.68,0.00958
30.69,0.01006
30.7,0.01025
30.71,0.00997
30.72,0.01022
30.73,0.01073
30.74,0.01107
30.75,0.01104
30.76,0.01042
30.77,0.01001
30.78,0.01029
30.79,0.00958
30.8,0.00934
30.81,0.00998
30.82,0.00989
30.83,0.00985
30.84,0.01005
30.85,0.01049
30.86,0.01006
30.87,0.00955
30.88,0.01021
30.89,0.01089
30.9,0.01148
30.91,0.01057
30.92,0.01042
30.93,0.01118
30.94,0.01113
30.95,0.01109
30.96,0.01208
30.97,0.0128
30.98,0.0122
30.99,0.01234
31,0.01237
31.01,0.01322
31.02,0.01412
31.03,0.0144
31.04,0.01523
31.05,0.01489
31.06,0.01447
31.07,0.01541
31.08,0.01625
31.09,0.01642
31.1,0.01705
31.11,0.01814
31.12,0.01866
31.13,0.02019
31.14,0.02047
31.15,0.02009
31.16,0.02149
31.17,0.02243
31.18,0.02339
31.19,0.02472
31.2,0.02452
31.21,0.02531
31.22,0.0259
31.23,0.02715
31.24,0.02824
31.25,0.03008
31.26,0.03104
31.27,0.03165
31.28,0.03176
31.29,0.03329
31.3,0.03485
31.31,0.03494
31.32,0.0358
31.33,0.03764
31.34,0.03939
31.35,0.04231
31.36,0.04433
31.37,0.04474
31.38,0.04494
31.39,0.04736
31.4,0.04777
31.41,0.04925
31.42,0.05254
31.43,0.05325
31.44,0.05407
31.45,0.05595
31.46,0.05644
31.47,0.05927
31.48,0.06141
31.49,0.06232
31.5,0.06279
31.51,0.06242
31.52,0.06394
31.53,0.06546
31.54,0.06723
31.55,0.06843
31.56,0.06749
31.57,0.06539
31.58,0.0633
31.59,0.06419
31.6,0.06353
31.61,0.06143
31.62,0.0614
31.63,0.06022
31.64,0.05759
31.65,0.05449
31.66,0.05162
31.67,0.05006
31.68,0.04739
31.69,0.04444
31.7,0.0435
31.71,0.04186
31.72,0.0392
31.73,0.03717
31.74,0.03566
31.75,0.03562
31.76,0.03297
31.77,0.02995
31.78,0.02794
31.79,0.028
31.8,0.02633
31.81,0.025
31.82,0.02348
31.83,0.02384
31.84,0.02297
31.85,0.0213
31.86,0.02011
31.87,0.01993
31.88,0.01918
31.89,0.01866
31.9,0.01717
31.91,0.01629
31.92,0.01613
31.93,0.01561
31.94,0.01635
31.95,0.01517
31.96,0.01376
31.97,0.01389
31.98,0.01433
31.99,0.01331
32,0.01301
32.01,0.01282
32.02,0.01273
32.03,0.01255
32.04,0.01126
32.05,0.01192
32.06,0.01104
32.07,0.01112
32.08,0.01005
32.09,0.00966
32.1,0.00972
32.11,0.01013
32.12,0.01066
32.13,0.00991
32.14,0.00967
32.15,0.00934
32.16,0.00943
32.17,0.0097
32.18,0.00904
32.19,0.00883
32.2,0.00916
32.21,0.00848
32.22,0.00785
32.23,0.00841
32.24,0.0088
32.25,0.00901
32.26,0.00783
32.27,0.0088
32.28,0.0094
32.29,0.00862
32.3,0.00766
32.31,0.00848
32.32,0.00858
32.33,0.00852
32.34,0.00826
32.35,0.0077
32.36,0.00728
32.37,0.00778
32.38,0.00776
32.39,0.00784
32.4,0.0077
32.41,0.00651
32.42,0.00717
32.43,0.00828
32.44,0.00834
32.45,0.0081
32.46,0.00719
32.47,0.00787
32.48,0.00749
32.49,0.00835
32.5,0.00785
32.51,0.00783
32.52,0.00825
32.53,0.00734
32.54,0.00758
32.55,0.0075
32.56,0.00755
32.57,0.00822
32.58,0.00869
32.59,0.00794
32.6,0.00758
32.61,0.00755
32.62,0.00795
32.63,0.00858
32.64,0.00895
32.65,0.00989
32.66,0.00969
32.67,0.00894
32.68,0.00895
32.69,0.00906
32.7,0.00944
32.71,0.00995
32.72,0.01046
32.73,0.01106
32.74,0.01004
32.75,0.01
32.76,0.01087
32.77,0.01094
32.78,0.01054
32.79,0.01064
32.8,0.01131
32.81,0.01169
32.82,0.01091
32.83,0.01186
32.84,0.01197
32.85,0.01226
32.86,0.01187
32.87,0.01171
32.88,0.01319
32.89,0.01345
32.9,0.01356
32.91,0.01477
32.92,0.01477
32.93,0.01479
32.94,0.01513
32.95,0.01621
32.96,0.01641
32.97,0.01705
32.98,0.01661
32.99,0.01581
33,0.01712
33.01,0.01818
33.02,0.01806
33.03,0.01951
33.04,0.01885
33.05,0.01909
33.06,0.01818
33.07,0.01789
33.08,0.01808
33.09,0.01872
33.1,0.01892
33.11,0.01958
33.12,0.01859
33.13,0.01841
33.14,0.0179
33.15,0.01826
33.16,0.01788
33.17,0.0163
33.18,0.01674
33.19,0.01633
33.2,0.01487
33.21,0.01531
33.22,0.01499
33.23,0.01356
33.24,0.01334
33.25,0.01243
33.26,0.01089
33.27,0.01182
33.28,0.01207
33.29,0.01364
33.3,0.01203
33.31,0.01108
33.32,0.01044
33.33,0.00832
33.34,0.00888
33.35,0.00934
33.36,0.00901
33.37,0.00856
33.38,0.00919
33.39,0.00952
33.4,0.00835
33.41,0.00871
33.42,0.0087
33.43,0.00822
33.44,0.00803
33.45,0.00791
33.46,0.00819
33.47,0.00806
33.48,0.00767
33.49,0.00783
33.5,0.00803
33.51,0.00811
33.52,0.00799
33.53,0.00811
33.54,0.00842
33.55,0.00743
33.56,0.00815
33.57,0.00811
33.58,0.00731
33.59,0.00727
33.6,0.00735
33.61,0.00699
33.62,0.00659
33.63,0.00738
33.64,0.00774
33.65,0.00712
33.66,0.00735
33.67,0.00806
33.68,0.00783
33.69,0.00767
33.7,0.009
33.71,0.00899
33.72,0.00805
33.73,0.00807
33.74,0.00834
33.75,0.00768
33.76,0.00942
33.77,0.00865
33.78,0.00909
33.79,0.00833
33.8,0.00931
33.81,0.01027
33.82,0.00787
33.83,0.00763
33.84,0.00867
33.85,0.00844
33.86,0.01
33.87,0.00937
33.88,0.00793
33.89,0.00913
33.9,0.01102
33.91,0.0103
33.92,0.01053
33.93,0.01096
33.94,0.01136
33.95,0.01138
33.96,0.01229
33.97,0.01154
33.98,0.01206
33.99,0.01236
34,0.01203
34.01,0.01284
34.02,0.01402
34.03,0.01277
34.04,0.01348
34.05,0.01372
34.06,0.01466
34.07,0.01484
34.08,0.01488
34.09,0.01574
34.1,0.01562
34.11,0.01661
34.12,0.01739
34.13,0.01625
34.14,0.01668
34.15,0.01861
34.16,0.01986
34.17,0.0208
34.18,0.0226
34.19,0.02182
34.2,0.02145
34.21,0.0241
34.22,0.02522
34.23,0.02471
34.24,0.02656
34.25,0.0279
34.26,0.02753
34.27,0.02909
34.28,0.02968
34.29,0.03085
34.3,0.03157
34.31,0.03153
34.32,0.03267
34.33,0.03467
34.34,0.03645
34.35,0.03673
34.36,0.03933
34.37,0.04029
34.38,0.04116
34.39,0.04329
34.4,0.04327
34.41,0.04717
34.42,0.04895
34.43,0.04956
34.44,0.0509
34.45,0.05113
34.46,0.05145
34.47,0.05458
34.48,0.05712
34.49,0.05779
34.5,0.05611
34.51,0.05933
34.52,0.06204
34.53,0.05971
34.54,0.06016
34.55,0.0589
34.56,0.06172
34.57,0.06385
34.58,0.0626
34.59,0.06175
34.6,0.06104
34.61,0.05969
34.62,0.06066
34.63,0.061
34.64,0.05974
34.65,0.05824
34.66,0.0561
34.67,0.05515
34.68,0.05405
34.69,0.05337
34.7,0.05144
34.71,0.04956
34.72,0.04773
34.73,0.04699
34.74,0.04684
34.75,0.04284
34.76,0.04118
34.77,0.04141
34.78,0.04094
34.79,0.04003
34.8,0.03874
34.81,0.03553
34.82,0.03343
34.83,0.03214
34.84,0.03152
34.85,0.02996
34.86,0.02871
34.87,0.02822
34.88,0.02686
34.89,0.02598
34.9,0.02565
34.91,0.02521
34.92,0.02377
34.93,0.02161
34.94,0.0203
34.95,0.02034
34.96,0.02095
34.97,0.02064
34.98,0.01893
34.99,0.01906
35,0.0185
35.01,0.01947
35.02,0.01922
35.03,0.01685
35.04,0.01682
35.05,0.01829
35.06,0.01876
35.07,0.01915
35.08,0.01836
35.09,0.01825
35.1,0.01795
35.11,0.01759
35.12,0.01849
35.13,0.01839
35.14,0.0177
35.15,0.01788
35.16,0.01741
35.17,0.01869
35.18,0.01929
35.19,0.0183
35.2,0.01925
35.21,0.01987
35.22,0.02113
35.23,0.0219
35.24,0.02298
35.25,0.02275
35.26,0.02208
35.27,0.02264
35.28,0.02336
35.29,0.02359
35.3,0.02428
35.31,0.02427
35.32,0.02572
35.33,0.02692
35.34,0.02657
35.35,0.02738
35.36,0.02827
35.37,0.0272
35.38,0.0276
35.39,0.03057
35.4,0.03105
35.41,0.02963
35.42,0.02971
35.43,0.03018
35.44,0.03016
35.45,0.03092
35.46,0.0322
35.47,0.03248
35.48,0.03195
35.49,0.03103
35.5,0.03098
35.51,0.03073
35.52,0.02936
35.53,0.02872
35.54,0.02892
35.55,0.02873
35.56,0.02786
35.57,0.02589
35.58,0.02536
35.59,0.02549
35.6,0.02418
35.61,0.02188
35.62,0.02169
35.63,0.02299
35.64,0.02413
35.65,0.02441
35.66,0.02394
35.67,0.02327
35.68,0.02269
35.69,0.02308
35.7,0.02373
35.71,0.02408
35.72,0.02308
35.73,0.02261
35.74,0.02361
35.75,0.02501
35.76,0.0257
35.77,0.02643
35.78,0.02732
35.79,0.02824
35.8,0.02921
35.81,0.03024
35.82,0.02918
35.83,0.02897
35.84,0.03065
35.85,0.03144
35.86,0.03209
35.87,0.03332
35.88,0.03339
35.89,0.03359
35.9,0.03514
35.91,0.03587
35.92,0.03654
35.93,0.03701
35.94,0.03878
35.95,0.03954
35.96,0.03744
35.97,0.0374
35.98,0.03856
35.99,0.03898
36,0.03859
36.01,0.0387
36.02,0.04016
36.03,0.03949
36.04,0.03757
36.05,0.03656
36.06,0.03602
36.07,0.03575
36.08,0.03484
36.09,0.03397
36.1,0.0335
36.11,0.03325
36.12,0.03308
36.13,0.03262
36.14,0.03075
36.15,0.02989
36.16,0.03014
36.17,0.02943
36.18,0.02904
36.19,0.02798
36.2,0.02656
36.21,0.02559
36.22,0.02504
36.23,0.02476
36.24,0.02329
36.25,0.0223
36.26,0.02079
36.27,0.0202
36.28,0.01945
36.29,0.01856
36.3,0.01805
36.31,0.01754
36.32,0.01597
36.33,0.01507
36.34,0.01547
36.35,0.01511
36.36,0.01404
36.37,0.01296
36.38,0.0124
36.39,0.01103
36.4,0.01062
36.41,0.01074
36.42,0.01077
36.43,0.01144
36.44,0.01094
36.45,0.01005
36.46,0.01008
36.47,0.01053
36.48,0.00971
36.49,0.00963
36.5,0.0095
36.51,0.00886
36.52,0.00914
36.53,0.00916
36.54,0.00802
36.55,0.00793
36.56,0.00803
36.57,0.00813
36.58,0.00864
36.59,0.00841
36.6,0.00815
36.61,0.0083
36.62,0.00783
36.63,0.00761
36.64,0.00797
36.65,0.0084
36.66,0.00832
36.67,0.00746
36.68,0.00716
36.69,0.00758
36.7,0.00744
36.71,0.00795
36.72,0.00764
36.73,0.00649
36.74,0.00702
36.75,0.00776
36.76,0.00809
36.77,0.00805
36.78,0.00851
36.79,0.00862
36.8,0.00824
36.81,0.0083
36.82,0.00838
36.83,0.00884
36.84,0.00892
36.85,0.00852
36.86,0.00903
36.87,0.00912
36.88,0.00939
36.89,0.00953
36.9,0.00942
36.91,0.00957
36.92,0.00993
36.93,0.01012
36.94,0.01009
36.95,0.01102
36.96,0.0117
36.97,0.01133
36.98,0.01201
36.99,0.01244
37,0.01348
37.01,0.01474
37.02,0.01467
37.03,0.01486
37.04,0.01524
37.05,0.01538
37.06,0.01622
37.07,0.01699
37.08,0.01718
37.09,0.01736
37.1,0.0182
37.11,0.01834
37.12,0.01893
37.13,0.01946
37.14,0.01999
37.15,0.02149
37.16,0.02174
37.17,0.02183
37.18,0.02225
37.19,0.02287
37.2,0.02414
37.21,0.02512
37.22,0.0249
37.23,0.02488
37.24,0.0255
37.25,0.02641
37.26,0.02793
37.27,0.02785
37.28,0.02773
37.29,0.02841
37.3,0.02834
37.31,0.02906
37.32,0.02909
37.33,0.02921
37.34,0.03036
37.35,0.0311
37.36,0.0314
37.37,0.03121
37.38,0.0304
37.39,0.02935
37.4,0.0284
37.41,0.02753
37.42,0.02711
37.43,0.02737
37.44,0.02728
37.45,0.02586
37.46,0.02459
37.47,0.02391
37.48,0.0235
37.49,0.02232
37.5,0.0209
37.51,0.02079
37.52,0.02039
37.53,0.01904
37.54,0.01772
37.55,0.01718
37.56,0.01747
37.57,0.01725
37.58,0.01616
37.59,0.01537
37.6,0.01489
37.61,0.01362
37.62,0.01275
37.63,0.01311
37.64,0.01318
37.65,0.01243
37.66,0.01133
37.67,0.01074
37.68,0.01033
37.69,0.00986
37.7,0.00947
37.71,0.00896
37.72,0.00875
37.73,0.00844
37.74,0.00841
37.75,0.00881
37.76,0.00888
37.77,0.0087
37.78,0.00844
37.79,0.00816
37.8,0.00833
37.81,0.0086
37.82,0.00816
37.83,0.00785
37.84,0.00767
37.85,0.00755
37.86,0.00729
37.87,0.00733
37.88,0.0081
37.89,0.00823
37.9,0.00738
37.91,0.00707
37.92,0.0077
37.93,0.00799
37.94,0.00785
37.95,0.00761
37.96,0.00764
37.97,0.00781
37.98,0.00798
37.99,0.00786
38,0.00749
38.01,0.00747
38.02,0.00789
38.03,0.00831
38.04,0.00813
38.05,0.00789
38.06,0.00815
38.07,0.00847
38.08,0.00852
38.09,0.00887
38.1,0.00935
38.11,0.00951
38.12,0.00921
38.13,0.00887
38.14,0.00861
38.15,0.00852
38.16,0.00869
38.17,0.00881
38.18,0.00978
38.19,0.01085
38.2,0.01035
38.21,0.00978
38.22,0.00931
38.23,0.00897
38.24,0.00854
38.25,0.00818
38.26,0.00882
38.27,0.00926
38.28,0.00852
38.29,0.00778
38.3,0.00819
38.31,0.00845
38.32,0.00822
38.33,0.00852
38.34,0.00822
38.35,0.00801
38.36,0.00824
38.37,0.00818
38.38,0.0075
38.39,0.00723
38.4,0.00826
38.41,0.00913
38.42,0.00888
38.43,0.00804
38.44,0.00829
38.45,0.00905
38.46,0.00954
38.47,0.00962
38.48,0.00981
38.49,0.01054
38.5,0.01112
38.51,0.01125
38.52,0.01076
38.53,0.01042
38.54,0.01079
38.55,0.01111
38.56,0.0106
38.57,0.01006
38.58,0.01024
38.59,0.01074
38.6,0.0108
38.61,0.01066
38.62,0.01073
38.63,0.01167
38.64,0.0119
38.65,0.01136
38.66,0.01034
38.67,0.01063
38.68,0.01131
38.69,0.01159
38.7,0.0108
38.71,0.01051
38.72,0.01059
38.73,0.01083
38.74,0.01045
38.75,0.00972
38.76,0.00943
38.77,0.00873
38.78,0.00841
38.79,0.00878
38.8,0.00859
38.81,0.00885
38.82,0.00899
38.83,0.0083
38.84,0.00849
38.85,0.00889
38.86,0.0086
38.87,0.00776
38.88,0.00736
38.89,0.00748
38.9,0.00709
38.91,0.00702
38.92,0.00658
38.93,0.00605
38.94,0.006
38.95,0.00609
38.96,0.00604
38.97,0.00576
38.98,0.00555
38.99,0.00623
39,0.00712
39.01,0.00666
39.02,0.00579
39.03,0.00469
39.04,0.00489
39.05,0.00592
39.06,0.00604
39.07,0.00629
39.08,0.0066
39.09,0.00629
39.1,0.00634
39.11,0.00617
39.12,0.00616
39.13,0.00689
39.14,0.00671
39.15,0.00654
39.16,0.00754
39.17,0.00735
39.18,0.00594
39.19,0.00529
39.2,0.00595
39.21,0.00642
39.22,0.00692
39.23,0.00768
39.24,0.00752
39.25,0.0081
39.26,0.00823
39.27,0.0079
39.28,0.00824
39.29,0.00794
39.3,0.00822
39.31,0.00844
39.32,0.00858
39.33,0.00873
39.34,0.0094
39.35,0.00986
39.36,0.00952
39.37,0.00941
39.38,0.01018
39.39,0.0103
39.4,0.01047
39.41,0.01059
39.42,0.01075
39.43,0.01139
39.44,0.01135
39.45,0.01115
39.46,0.01169
39.47,0.01245
39.48,0.01273
39.49,0.01287
39.5,0.0127
39.51,0.01359
39.52,0.0136
39.53,0.01328
39.54,0.01388
39.55,0.01437
39.56,0.01557
39.57,0.016
39.58,0.01539
39.59,0.01508
39.6,0.01542
39.61,0.01526
39.62,0.01612
39.63,0.01732
39.64,0.01712
39.65,0.01673
39.66,0.01685
39.67,0.01739
39.68,0.01855
39.69,0.01806
39.7,0.01698
39.71,0.01804
39.72,0.01945
39.73,0.01962
39.74,0.01956
39.75,0.02038
39.76,0.02098
39.77,0.02095
39.78,0.02088
39.79,0.02117
39.8,0.02272
39.81,0.02379
39.82,0.02382
39.83,0.02394
39.84,0.02446
39.85,0.02491
39.86,0.02522
39.87,0.02684
39.88,0.02693
39.89,0.02702
39.9,0.02774
39.91,0.02841
39.92,0.02977
39.93,0.02952
39.94,0.02968
39.95,0.02827
39.96,0.02883
39.97,0.02899
39.98,0.029
39.99,0.02971
40,0.02966
40.01,0.02881
40.02,0.02879
40.03,0.02795
40.04,0.02631
40.05,0.0258
40.06,0.02664
40.07,0.02592
40.08,0.02477
40.09,0.02375
40.1,0.02405
40.11,0.02252
40.12,0.02206
40.13,0.02181
40.14,0.01962
40.15,0.01911
40.16,0.01975
40.17,0.01855
40.18,0.01674
40.19,0.01548
40.2,0.01439
40.21,0.01366
40.22,0.0142
40.23,0.01426
40.24,0.0129
40.25,0.01262
40.26,0.01371
40.27,0.01292
40.28,0.01148
40.29,0.01176
40.3,0.01202
40.31,0.01064
40.32,0.01019
40.33,0.01069
40.34,0.01111
40.35,0.01032
40.36,0.01004
40.37,0.00909
40.38,0.00963
40.39,0.01001
40.4,0.00941
40.41,0.01016
40.42,0.01059
40.43,0.0103
40.44,0.00957
40.45,0.00932
40.46,0.00929
40.47,0.00888
40.48,0.00982
40.49,0.00967
40.5,0.00978
40.51,0.0104
40.52,0.01017
40.53,0.01006
40.54,0.00983
40.55,0.01028
40.56,0.0109
40.57,0.00966
40.58,0.0103
40.59,0.01128
40.6,0.01158
40.61,0.01086
40.62,0.01075
40.63,0.01077
40.64,0.01102
40.65,0.01194
40.66,0.01183
40.67,0.0125
40.68,0.01292
40.69,0.01347
40.7,0.01232
40.71,0.01216
40.72,0.01235
40.73,0.01267
40.74,0.01256
40.75,0.01354
40.76,0.01481
40.77,0.01371
40.78,0.01377
40.79,0.01446
40.8,0.01428
40.81,0.01315
40.82,0.01437
40.83,0.01436
40.84,0.01381
40.85,0.0143
40.86,0.01408
40.87,0.01302
40.88,0.01311
40.89,0.01421
40.9,0.01482
40.91,0.01369
40.92,0.01319
40.93,0.01468
40.94,0.01474
40.95,0.01376
40.96,0.01377
40.97,0.01407
40.98,0.01461
40.99,0.01491
41,0.01472
41.01,0.0149
41.02,0.01529
41.03,0.01592
41.04,0.01646
41.05,0.01721
41.06,0.01667
41.07,0.01562
41.08,0.01627
41.09,0.01726
41.1,0.01701
41.11,0.01716
41.12,0.01701
41.13,0.01819
41.14,0.01811
41.15,0.0187
41.16,0.01904
41.17,0.01902
41.18,0.01877
41.19,0.01881
41.2,0.01857
41.21,0.01902
41.22,0.01977
41.23,0.01947
41.24,0.01852
41.25,0.01895
41.26,0.01883
41.27,0.01808
41.28,0.0177
41.29,0.01796
41.3,0.01864
41.31,0.01869
41.32,0.01752
41.33,0.01777
41.34,0.0182
41.35,0.01847
41.36,0.01611
41.37,0.01564
41.38,0.01597
41.39,0.01546
41.4,0.01511
41.41,0.01629
41.42,0.01568
41.43,0.01593
41.44,0.01477
41.45,0.01469
41.46,0.01419
41.47,0.01364
41.48,0.01243
41.49,0.01164
41.5,0.01222
41.51,0.01207
41.52,0.01236
41.53,0.01205
41.54,0.01228
41.55,0.01234
41.56,0.01304
41.57,0.01244
41.58,0.01251
41.59,0.01352
41.6,0.01376
41.61,0.01225
41.62,0.01346
41.63,0.01444
41.64,0.01483
41.65,0.01409
41.66,0.01389
41.67,0.01439
41.68,0.01409
41.69,0.01476
41.7,0.01559
41.71,0.01573
41.72,0.01551
41.73,0.01543
41.74,0.0159
41.75,0.01799
41.76,0.01882
41.77,0.01872
41.78,0.01884
41.79,0.01951
41.8,0.01946
41.81,0.01934
41.82,0.01896
41.83,0.01937
41.84,0.02257
41.85,0.02384
41.86,0.02455
41.87,0.02616
41.88,0.02502
41.89,0.0252
41.9,0.02692
41.91,0.02808
41.92,0.027
41.93,0.02736
41.94,0.02824
41.95,0.02689
41.96,0.0285
41.97,0.02955
41.98,0.02824
41.99,0.03046
42,0.03075
42.01,0.03129
42.02,0.02997
42.03,0.03017
42.04,0.0276
42.05,0.02833
42.06,0.02802
42.07,0.02806
42.08,0.02737
42.09,0.02765
42.1,0.02641
42.11,0.02601
42.12,0.02631
42.13,0.02526
42.14,0.02545
42.15,0.02629
42.16,0.0266
42.17,0.02464
42.18,0.0244
42.19,0.02386
42.2,0.02516
42.21,0.02405
42.22,0.02403
42.23,0.02511
42.24,0.02467
42.25,0.02403
42.26,0.02583
42.27,0.02708
42.28,0.0281
42.29,0.02932
42.3,0.02867
42.31,0.02806
42.32,0.02888
42.33,0.0306
42.34,0.03118
42.35,0.03097
42.36,0.0319
42.37,0.03351
42.38,0.03478
42.39,0.03476
42.4,0.03559
42.41,0.03635
42.42,0.03777
42.43,0.03916
42.44,0.04217
42.45,0.04104
42.46,0.04232
42.47,0.04377
42.48,0.0474
42.49,0.04629
42.5,0.04677
42.51,0.0493
42.52,0.04996
42.53,0.0489
42.54,0.05036
42.55,0.05168
42.56,0.05222
42.57,0.05316
42.58,0.0546
42.59,0.05541
42.6,0.05568
42.61,0.05905
42.62,0.05755
42.63,0.05469
42.64,0.05564
42.65,0.05362
42.66,0.05294
42.67,0.05312
42.68,0.05073
42.69,0.04735
42.7,0.04748
42.71,0.04874
42.72,0.04428
42.73,0.04306
42.74,0.04121
42.75,0.04126
42.76,0.04047
42.77,0.03996
42.78,0.03711
42.79,0.03466
42.8,0.03447
42.81,0.0345
42.82,0.0327
42.83,0.03209
42.84,0.02964
42.85,0.02953
42.86,0.03
42.87,0.0301
42.88,0.0294
42.89,0.02908
42.9,0.02918
42.91,0.02994
42.92,0.03069
42.93,0.02914
42.94,0.02775
42.95,0.02939
42.96,0.03087
42.97,0.0307
42.98,0.03254
42.99,0.03133
43,0.02909
43.01,0.02974
43.02,0.03113
43.03,0.03216
43.04,0.03251
43.05,0.0326
43.06,0.03379
43.07,0.03463
43.08,0.0348
43.09,0.03682
43.1,0.0367
43.11,0.0379
43.12,0.03845
43.13,0.0375
43.14,0.03774
43.15,0.03941
43.16,0.03973
43.17,0.03937
43.18,0.03909
43.19,0.03877
43.2,0.03873
43.21,0.03945
43.22,0.04009
43.23,0.04064
43.24,0.03978
43.25,0.03854
43.26,0.03826
43.27,0.03841
43.28,0.03597
43.29,0.03468
43.3,0.03419
43.31,0.03309
43.32,0.03331
43.33,0.03217
43.34,0.03066
43.35,0.02899
43.36,0.02881
43.37,0.02873
43.38,0.0272
43.39,0.02513
43.4,0.02572
43.41,0.02472
43.42,0.02341
43.43,0.02432
43.44,0.02313
43.45,0.02069
43.46,0.02168
43.47,0.02104
43.48,0.02188
43.49,0.02171
43.5,0.02163
43.51,0.02011
43.52,0.02073
43.53,0.02001
43.54,0.02045
43.55,0.01904
43.56,0.01926
43.57,0.01943
43.58,0.01893
43.59,0.0193
43.6,0.02035
43.61,0.02058
43.62,0.02059
43.63,0.01944
43.64,0.01958
43.65,0.01944
43.66,0.01886
43.67,0.01727
43.68,0.01758
43.69,0.01706
43.7,0.017
43.71,0.017
43.72,0.01628
43.73,0.01529
43.74,0.01631
43.75,0.01575
43.76,0.01531
43.77,0.01532
43.78,0.01472
43.79,0.01461
43.8,0.01468
43.81,0.01378
43.82,0.01358
43.83,0.01429
43.84,0.01331
43.85,0.01231
43.86,0.01271
43.87,0.01337
43.88,0.0139
43.89,0.0119
43.9,0.01099
43.91,0.01173
43.92,0.01249
43.93,0.01336
43.94,0.0112
43.95,0.01121
43.96,0.01256
43.97,0.01191
43.98,0.01081
43.99,0.01122
44,0.01226
44.01,0.01256
44.02,0.01168
44.03,0.01203
44.04,0.01161
44.05,0.01094
44.06,0.01042
44.07,0.01209
44.08,0.01236
44.09,0.01137
44.1,0.01215
44.11,0.01281
44.12,0.01245
44.13,0.01256
44.14,0.01272
44.15,0.01273
44.16,0.012
44.17,0.01411
44.18,0.01495
44.19,0.01512
44.2,0.01531
44.21,0.01562
44.22,0.01663
44.23,0.01613
44.24,0.01579
44.25,0.01726
44.26,0.0174
44.27,0.01667
44.28,0.01718
44.29,0.01728
44.3,0.01666
44.31,0.01795
44.32,0.01855
44.33,0.01896
44.34,0.01765
44.35,0.01951
44.36,0.01906
44.37,0.01874
44.38,0.01875
44.39,0.01854
44.4,0.01935
44.41,0.019
44.42,0.01906
44.43,0.01947
44.44,0.01908
44.45,0.01914
44.46,0.02009
44.47,0.01947
44.48,0.01846
44.49,0.01796
44.5,0.01853
44.51,0.01935
44.52,0.01875
44.53,0.01799
44.54,0.01756
44.55,0.01759
44.56,0.01803
44.57,0.01808
44.58,0.01711
44.59,0.01785
44.6,0.01856
44.61,0.01874
44.62,0.0179
44.63,0.01908
44.64,0.0187
44.65,0.01853
44.66,0.02075
44.67,0.02092
44.68,0.01907
44.69,0.01965
44.7,0.02056
44.71,0.02095
44.72,0.02095
44.73,0.02067
44.74,0.0214
44.75,0.02196
44.76,0.02326
44.77,0.02342
44.78,0.02402
44.79,0.02385
44.8,0.02273
44.81,0.02335
44.82,0.02402
44.83,0.02553
44.84,0.02587
44.85,0.02705
44.86,0.0271
44.87,0.0265
44.88,0.02753
44.89,0.02793
44.9,0.02887
44.91,0.0297
44.92,0.02911
44.93,0.02817
44.94,0.02669
44.95,0.02649
44.96,0.02663
44.97,0.02824
44.98,0.02862
44.99,0.02764
45,0.02566
45.01,0.02648
45.02,0.02568
45.03,0.02426
45.04,0.02406
45.05,0.02468
45.06,0.02333
45.07,0.02125
45.08,0.02136
45.09,0.02057
45.1,0.01992
45.11,0.0187
45.12,0.01848
45.13,0.01741
45.14,0.01676
45.15,0.01699
45.16,0.01789
45.17,0.01558
45.18,0.01626
45.19,0.01511
45.2,0.01424
45.21,0.01324
45.22,0.01401
45.23,0.01407
45.24,0.01401
45.25,0.01323
45.26,0.01147
45.27,0.01202
45.28,0.01231
45.29,0.01203
45.3,0.01363
45.31,0.01349
45.32,0.01297
45.33,0.01192
45.34,0.0115
45.35,0.01102
45.36,0.01043
45.37,0.00984
45.38,0.01082
45.39,0.01051
45.4,0.01186
45.41,0.01311
45.42,0.01286
45.43,0.0117
45.44,0.01247
45.45,0.01242
45.46,0.01071
45.47,0.01041
45.48,0.01149
45.49,0.01203
45.5,0.01209
45.51,0.01233
45.52,0.01141
45.53,0.01172
45.54,0.01201
45.55,0.01265
45.56,0.01271
45.57,0.01193
45.58,0.01356
45.59,0.01247
45.6,0.01224
45.61,0.01268
45.62,0.01254
45.63,0.01164
45.64,0.01159
45.65,0.01185
45.66,0.01232
45.67,0.01271
45.68,0.013
45.69,0.01138
45.7,0.01079
45.71,0.01097
45.72,0.01112
45.73,0.01176
45.74,0.01052
45.75,0.01006
45.76,0.01129
45.77,0.01158
45.78,0.01148
45.79,0.0111
45.8,0.01079
45.81,0.011
45.82,0.01151
45.83,0.0108
45.84,0.01029
45.85,0.01093
45.86,0.01145
45.87,0.01134
45.88,0.01188
45.89,0.01189
45.9,0.01247
45.91,0.01213
45.92,0.01214
45.93,0.0115
45.94,0.01085
45.95,0.01109
45.96,0.01076
45.97,0.01043
45.98,0.01012
45.99,0.01022
46,0.01097
46.01,0.01043
46.02,0.00984
46.03,0.01128
46.04,0.01006
46.05,0.00905
46.06,0.00843
46.07,0.00901
46.08,0.00842
46.09,0.00839
46.1,0.00849
46.11,0.0071
46.12,0.00675
46.13,0.00745
46.14,0.00744
46.15,0.00796
46.16,0.0075
46.17,0.0063
46.18,0.00591
46.19,0.00638
46.2,0.00626
46.21,0.0073
46.22,0.00696
46.23,0.00591
46.24,0.00586
46.25,0.0055
46.26,0.00514
46.27,0.00489
46.28,0.00418
46.29,0.00422
46.3,0.00554
46.31,0.00487
46.32,0.00416
46.33,0.00413
46.34,0.00469
46.35,0.00493
46.36,0.00427
46.37,0.00439
46.38,0.00426
46.39,0.00376
46.4,0.00408
46.41,0.00342
46.42,0.00411
46.43,0.00461
46.44,0.0044
46.45,0.00451
46.46,0.00394
46.47,0.00367
46.48,0.00383
46.49,0.00369
46.5,0.00367
46.51,0.00343
46.52,0.00305
46.53,0.00395
46.54,0.00418
46.55,0.00416
46.56,0.00391
46.57,0.00338
46.58,0.00318
46.59,0.00378
46.6,0.00374
46.61,0.00414
46.62,0.00434
46.63,0.00408
46.64,0.00388
46.65,0.00375
46.66,0.00467
46.67,0.00462
46.68,0.00412
46.69,0.00443
46.7,0.0045
46.71,0.00448
46.72,0.00475
46.73,0.00414
46.74,0.0038
46.75,0.00388
46.76,0.00355
46.77,0.00381
46.78,0.00395
46.79,0.00384
46.8,0.00429
46.81,0.00365
46.82,0.00367
46.83,0.00324
46.84,0.00329
46.85,0.00318
46.86,0.00373
46.87,0.0044
46.88,0.00395
46.89,0.00385
46.9,0.00382
46.91,0.00293
46.92,0.00279
46.93,0.00299
46.94,0.00346
46.95,0.00402
46.96,0.00449
46.97,0.00358
46.98,0.00255
46.99,0.0031
47,0.00402
47.01,0.00409
47.02,0.0038
47.03,0.00348
47.04,0.0031
47.05,0.00339
47.06,0.00304
47.07,0.00366
47.08,0.00416
47.09,0.00388
47.1,0.00346
47.11,0.00336
47.12,0.00321
47.13,0.00408
47.14,0.00351
47.15,0.00359
47.16,0.00363
47.17,0.00375
47.18,0.00419
47.19,0.00384
47.2,0.00395
47.21,0.00493
47.22,0.00414
47.23,0.00311
47.24,0.00318
47.25,0.00278
47.26,0.00325
47.27,0.00292
47.28,0.00325
47.29,0.00344
47.3,0.00379
47.31,0.0031
47.32,0.00225
47.33,0.0026
47.34,0.00272
47.35,0.00148
47.36,0.00122
47.37,0.00249
47.38,0.00336
47.39,0.0027
47.4,0.00232
47.41,0.0024
47.42,0.00265
47.43,0.00261
47.44,0.00169
47.45,0.00143
47.46,0.00162
47.47,0.00128
47.48,0.00139
47.49,0.00152
47.5,0.00179
47.51,0.00168
47.52,0.0019
47.53,0.00192
47.54,0.00165
47.55,0.00107
47.56,0.00112
47.57,0.00135
47.58,0.00132
47.59,0.00143
47.6,0.00183
47.61,0.00179
47.62,0.00173
47.63,0.00187
47.64,0.00187
47.65,9.54E-04
47.66,5.81E-04
47.67,5.70E-04
47.68,8.57E-04
47.69,7.68E-04
47.7,0.00152
47.71,0.00153
47.72,0.00103
47.73,0.00166
47.74,0.00234
47.75,0.0014
47.76,6.54E-04
47.77,0.00116
47.78,0.00146
47.79,0.00137
47.8,0.00138
47.81,0.00109
47.82,0
47.83,7.80E-04
47.84,0.00241
47.85,0.002
47.86,0.00128
47.87,0.00181
47.88,0.00228
47.89,0.00208
47.9,0.00174
47.91,0.00238
47.92,0.00223
47.93,0.00222
47.94,0.00302
47.95,0.00343
47.96,0.00263
47.97,0.0022
47.98,0.00236
47.99,0.0027
48,0.00334
48.01,0.00353
48.02,0.00287
48.03,0.00274
48.04,0.00328
48.05,0.00348
48.06,0.00286
48.07,0.00255
48.08,0.00289
48.09,0.00315
48.1,0.00348
48.11,0.00368
48.12,0.00327
48.13,0.00331
48.14,0.0039
48.15,0.0037
48.16,0.0031
48.17,0.00309
48.18,0.00258
48.19,0.00325
48.2,0.00392
48.21,0.00365
48.22,0.00292
48.23,0.00305
48.24,0.00348
48.25,0.00385
48.26,0.00321
48.27,0.00299
48.28,0.00357
48.29,0.00313
48.3,0.00259
48.31,0.00251
48.32,0.00214
48.33,0.00252
48.34,0.00221
48.35,0.00141
48.36,0.00175
48.37,0.00165
48.38,0.00176
48.39,0.00194
48.4,0.00205
48.41,0.00192
48.42,0.00262
48.43,0.00296
48.44,0.0017
48.45,0.00116
48.46,0.00155
48.47,0.0014
48.48,0.00117
48.49,0.00138
48.5,0.00121
48.51,0.00136
48.52,0.0013
48.53,0.00104
48.54,3.67E-04
48.55,6.93E-04
48.56,8.32E-04
48.57,2.23E-04
48.58,1.08E-04
48.59,7.44E-04
48.6,0.00136
48.61,0.00169
48.62,0.00198
48.63,0.00211
48.64,0.00177
48.65,0.00169
48.66,0.00175
48.67,0.00133
48.68,0.00116
48.69,0.00106
48.7,0.00109
48.71,0.00151
48.72,0.00185
48.73,0.00152
48.74,0.001
48.75,7.95E-04
48.76,0.0012
48.77,0.00143
48.78,0.00166
48.79,0.00144
48.8,0.00183
48.81,0.00141
48.82,0.00133
48.83,0.00137
48.84,0.00154
48.85,0.00132
48.86,0.00128
48.87,0.00127
48.88,8.18E-04
48.89,0.00136
48.9,0.00138
48.91,0.00118
48.92,0.00211
48.93,0.00179
48.94,0.00184
48.95,0.00199
48.96,0.00215
48.97,0.00198
48.98,0.00147
48.99,0.00142
49,0.00157
49.01,0.00195
49.02,0.00183
49.03,0.00225
49.04,0.00178
49.05,0.00215
49.06,0.003
49.07,0.00314
49.08,0.0026
49.09,0.00244
49.1,0.00251
49.11,0.00292
49.12,0.00344
49.13,0.00339
49.14,0.0036
49.15,0.00408
49.16,0.00342
49.17,0.00369
49.18,0.00428
49.19,0.00379
49.2,0.00324
49.21,0.00341
49.22,0.0034
49.23,0.00396
49.24,0.00359
49.25,0.00353
49.26,0.00387
49.27,0.00407
49.28,0.00465
49.29,0.005
49.3,0.00519
49.31,0.00541
49.32,0.00534
49.33,0.00541
49.34,0.00597
49.35,0.00592
49.36,0.00586
49.37,0.00644
49.38,0.0065
49.39,0.00665
49.4,0.00629
49.41,0.00627
49.42,0.0066
49.43,0.00635
49.44,0.00675
49.45,0.0071
49.46,0.00693
49.47,0.00657
49.48,0.00682
49.49,0.00706
49.5,0.00689
49.51,0.00684
49.52,0.00731
49.53,0.00698
49.54,0.00628
49.55,0.00636
49.56,0.0076
49.57,0.00839
49.58,0.01004
49.59,0.00948
49.6,0.00825
49.61,0.00807
49.62,0.00863
49.63,0.00883
49.64,0.00827
49.65,0.00809
49.66,0.00923
49.67,0.01018
49.68,0.01012
49.69,0.01052
49.7,0.01077
49.71,0.01038
49.72,0.01093
49.73,0.01175
49.74,0.011
49.75,0.01023
49.76,0.01074
49.77,0.01125
49.78,0.01247
49.79,0.01265
49.8,0.01321
49.81,0.01303
49.82,0.01418
49.83,0.01495
49.84,0.0138
49.85,0.01386
49.86,0.01433
49.87,0.01542
49.88,0.01554
49.89,0.01541
49.9,0.01625
49.91,0.01714
49.92,0.01707
49.93,0.01806
49.94,0.01902
49.95,0.01843
49.96,0.01713
49.97,0.01728
49.98,0.01784
49.99,0.01801
50,0.01763
48.1,0.00348
48.11,0.00368
48.12,0.00327
48.13,0.00331
48.14,0.0039
48.15,0.0037
48.16,0.0031
48.17,0.00309
48.18,0.00258
48.19,0.00325
48.2,0.00392
48.21,0.00365
48.22,0.00292
48.23,0.00305
48.24,0.00348
48.25,0.00385
48.26,0.00321
48.27,0.00299
48.28,0.00357
48.29,0.00313
48.3,0.00259
48.31,0.00251
48.32,0.00214
48.33,0.00252
48.34,0.00221
48.35,0.00141
48.36,0.00175
48.37,0.00165
48.38,0.00176
48.39,0.00194
48.4,0.00205
48.41,0.00192
48.42,0.00262
48.43,0.00296
48.44,0.0017
48.45,0.00116
48.46,0.00155
48.47,0.0014
48.48,0.00117
48.49,0.00138
48.5,0.00121
48.51,0.00136
48.52,0.0013
48.53,0.00104
48.54,3.67E-04
48.55,6.93E-04
48.56,8.32E-04
48.57,2.23E-04
48.58,1.08E-04
48.59,7.44E-04
48.6,0.00136
48.61,0.00169
48.62,0.00198
48.63,0.00211
48.64,0.00177
48.65,0.00169
48.66,0.00175
48.67,0.00133
48.68,0.00116
48.69,0.00106
48.7,0.00109
48.71,0.00151
48.72,0.00185
48.73,0.00152
48.74,0.001
48.75,7.95E-04
48.76,0.0012
48.77,0.00143
48.78,0.00166
48.79,0.00144
48.8,0.00183
48.81,0.00141
48.82,0.00133
48.83,0.00137
48.84,0.00154
48.85,0.00132
48.86,0.00128
48.87,0.00127
48.88,8.18E-04
48.89,0.00136
48.9,0.00138
48.91,0.00118
48.92,0.00211
48.93,0.00179
48.94,0.00184
48.95,0.00199
48.96,0.00215
48.97,0.00198
48.98,0.00147
48.99,0.00142
49,0.00157
49.01,0.00195
49.02,0.00183
49.03,0.00225
49.04,0.00178
49.05,0.00215
49.06,0.003
49.07,0.00314
49.08,0.0026
49.09,0.00244
49.1,0.00251
49.11,0.00292
49.12,0.00344
49.13,0.00339
49.14,0.0036
49.15,0.00408
49.16,0.00342
49.17,0.00369
49.18,0.00428
49.19,0.00379
49.2,0.00324
49.21,0.00341
49.22,0.0034
49.23,0.00396
49.24,0.00359
49.25,0.00353
49.26,0.00387
49.27,0.00407
49.28,0.00465
49.29,0.005
49.3,0.00519
49.31,0.00541
49.32,0.00534
49.33,0.00541
49.34,0.00597
49.35,0.00592
49.36,0.00586
49.37,0.00644
49.38,0.0065
49.39,0.00665
49.4,0.00629
49.41,0.00627
49.42,0.0066
49.43,0.00635
49.44,0.00675
49.45,0.0071
49.46,0.00693
49.47,0.00657
49.48,0.00682
49.49,0.00706
49.5,0.00689
49.51,0.00684
49.52,0.00731
49.53,0.00698
49.54,0.00628
49.55,0.00636
49.56,0.0076
49.57,0.00839
49.58,0.01004
49.59,0.00948
49.6,0.00825
49.61,0.00807
49.62,0.00863
49.63,0.00883
49.64,0.00827
49.65,0.00809
49.66,0.00923
49.67,0.01018
49.68,0.01012
49.69,0.01052
49.7,0.01077
49.71,0.01038
49.72,0.01093
49.73,0.01175
49.74,0.011
49.75,0.01023
49.76,0.01074
49.77,0.01125
49.78,0.01247
49.79,0.01265
49.8,0.01321
49.81,0.01303
49.82,0.01418
49.83,0.01495
49.84,0.0138
49.85,0.01386
49.86,0.01433
49.87,0.01542
49.88,0.01554
49.89,0.01541
49.9,0.01625
49.91,0.01714
49.92,0.01707
49.93,0.01806
49.94,0.01902
49.95,0.01843
49.96,0.01713
49.97,0.01728
49.98,0.01784
49.99,0.01801
50,0.01763
