2(theta dregrees),Intensity  (a.u)
5,0.04493
5.0199,0.04347
5.0397,0.04383
5.0596,0.04486
5.0794,0.04319
5.0993,0.04402
5.1191,0.04236
5.139,0.04238
5.1589,0.04291
5.1787,0.04338
5.1986,0.04249
5.2184,0.04246
5.2383,0.04421
5.2582,0.04192
5.278,0.04306
5.2979,0.04496
5.3177,0.04396
5.3376,0.04308
5.3574,0.04217
5.3773,0.04226
5.3972,0.04528
5.417,0.04332
5.4369,0.04446
5.4567,0.04435
5.4766,0.04416
5.4964,0.04217
5.5163,0.04319
5.5362,0.04407
5.556,0.04362
5.5759,0.04535
5.5957,0.04419
5.6156,0.04519
5.6355,0.04486
5.6553,0.04501
5.6752,0.04365
5.695,0.0448
5.7149,0.04551
5.7347,0.04499
5.7546,0.04556
5.7745,0.04625
5.7943,0.04468
5.8142,0.04388
5.834,0.04647
5.8539,0.04582
5.8737,0.04558
5.8936,0.04652
5.9135,0.04691
5.9333,0.04722
5.9532,0.04689
5.973,0.04753
5.9929,0.04727
6.0128,0.04695
6.0326,0.04894
6.0525,0.04892
6.0723,0.04879
6.0922,0.04958
6.112,0.0476
6.1319,0.04897
6.1518,0.04936
6.1716,0.05033
6.1915,0.05054
6.2113,0.0512
6.2312,0.05234
6.251,0.05449
6.2709,0.05413
6.2908,0.05755
6.3106,0.05947
6.3305,0.06142
6.3503,0.0634
6.3702,0.06532
6.3901,0.06764
6.4099,0.07202
6.4298,0.07722
6.4496,0.08272
6.4695,0.08932
6.4893,0.09622
6.5092,0.10542
6.5291,0.1192
6.5489,0.1341
6.5688,0.14996
6.5886,0.16704
6.6085,0.1949
6.6283,0.21978
6.6482,0.2608
6.6681,0.30344
6.6879,0.35845
6.7078,0.42562
6.7276,0.50465
6.7475,0.59115
6.7674,0.69684
6.7872,0.80123
6.8071,0.89982
6.8269,0.97535
6.8468,1
6.8666,0.94448
6.8865,0.80043
6.9064,0.64494
6.9262,0.51334
6.9461,0.40336
6.9659,0.33144
6.9858,0.28023
7.0056,0.24008
7.0255,0.20693
7.0454,0.18228
7.0652,0.16311
7.0851,0.1477
7.1049,0.1301
7.1248,0.12032
7.1447,0.10928
7.1645,0.10338
7.1844,0.09495
7.2042,0.09143
7.2241,0.08659
7.2439,0.08057
7.2638,0.07544
7.2837,0.07188
7.3035,0.06876
7.3234,0.06603
7.3432,0.0631
7.3631,0.05992
7.3829,0.05869
7.4028,0.05614
7.4227,0.05326
7.4425,0.0527
7.4624,0.05289
7.4822,0.04884
7.5021,0.04892
7.522,0.04928
7.5418,0.04817
7.5617,0.04884
7.5815,0.04731
7.6014,0.04538
7.6212,0.04694
7.6411,0.04592
7.661,0.04797
7.6808,0.04677
7.7007,0.04583
7.7205,0.04571
7.7404,0.04652
7.7602,0.04504
7.7801,0.04644
7.8,0.04603
7.8198,0.04546
7.8397,0.04525
7.8595,0.0436
7.8794,0.04399
7.8993,0.04508
7.9191,0.04594
7.939,0.0456
7.9588,0.04538
7.9787,0.04351
7.9985,0.04558
8.0184,0.04716
8.0383,0.0471
8.0581,0.04649
8.078,0.04507
8.0978,0.04461
8.1177,0.04518
8.1375,0.04641
8.1574,0.04568
8.1773,0.04583
8.1971,0.04765
8.217,0.04636
8.2368,0.04809
8.2567,0.04546
8.2766,0.04549
8.2964,0.04824
8.3163,0.04781
8.3361,0.04702
8.356,0.04775
8.3758,0.04918
8.3957,0.04903
8.4156,0.04958
8.4354,0.0495
8.4553,0.05014
8.4751,0.05062
8.495,0.05131
8.5148,0.05101
8.5347,0.05363
8.5546,0.0539
8.5744,0.05577
8.5943,0.058
8.6141,0.0603
8.634,0.06343
8.6539,0.06769
8.6737,0.07117
8.6936,0.07677
8.7134,0.08362
8.7333,0.09073
8.7531,0.10036
8.773,0.10788
8.7929,0.11654
8.8127,0.12225
8.8326,0.12547
8.8524,0.12589
8.8723,0.11993
8.8921,0.1112
8.912,0.10001
8.9319,0.08918
8.9517,0.08272
8.9716,0.07492
8.9914,0.0681
9.0113,0.0638
9.0312,0.0595
9.051,0.0576
9.0709,0.0561
9.0907,0.0562
9.1106,0.05397
9.1304,0.05306
9.1503,0.05405
9.1702,0.0534
9.19,0.05328
9.2099,0.05304
9.2297,0.05327
9.2496,0.05343
9.2694,0.05376
9.2893,0.0534
9.3092,0.0648
9.329,0.06711
9.3489,0.06978
9.3687,0.07394
9.3886,0.0772
9.4085,0.08481
9.4283,0.09104
9.4482,0.09745
9.468,0.10982
9.4879,0.12141
9.5077,0.13483
9.5276,0.15341
9.5475,0.17604
9.5673,0.19963
9.5872,0.22362
9.607,0.25474
9.6269,0.29273
9.6467,0.32056
9.6666,0.34901
9.6865,0.36297
9.7063,0.35673
9.7262,0.32624
9.746,0.28083
9.7659,0.23434
9.7858,0.19481
9.8056,0.16715
9.8255,0.14801
9.8453,0.13188
9.8652,0.11793
9.885,0.10259
9.9049,0.09221
9.9248,0.08583
9.9446,0.0756
9.9645,0.07282
9.9843,0.0646
10.0042,0.06065
10.024,0.05845
10.0439,0.0572
10.0638,0.05499
10.0836,0.05207
10.1035,0.05095
10.1233,0.05079
10.1432,0.048
10.1631,0.04979
10.1829,0.04628
10.2028,0.04394
10.2226,0.04569
10.2425,0.04427
10.2623,0.0424
10.2822,0.04112
10.3021,0.0409
10.3219,0.0412
10.3418,0.03914
10.3616,0.03953
10.3815,0.03867
10.4013,0.03746
10.4212,0.03847
10.4411,0.0392
10.4609,0.03743
10.4808,0.03787
10.5006,0.03791
10.5205,0.03638
10.5404,0.03703
10.5602,0.03571
10.5801,0.0358
10.5999,0.03652
10.6198,0.03697
10.6396,0.03499
10.6595,0.03468
10.6794,0.03546
10.6992,0.03546
10.7191,0.03666
10.7389,0.03526
10.7588,0.03543
10.7786,0.03487
10.7985,0.03474
10.8184,0.03527
10.8382,0.03516
10.8581,0.0334
10.8779,0.0342
10.8978,0.03479
10.9177,0.03293
10.9375,0.03474
10.9574,0.03413
10.9772,0.03435
10.9971,0.03351
11.0169,0.03407
11.0368,0.03313
11.0567,0.03505
11.0765,0.03373
11.0964,0.03436
11.1162,0.03469
11.1361,0.03432
11.1559,0.03619
11.1758,0.03588
11.1957,0.03617
11.2155,0.03621
11.2354,0.03914
11.2552,0.03872
11.2751,0.03955
11.295,0.03998
11.3148,0.04081
11.3347,0.0412
11.3545,0.04248
11.3744,0.04237
11.3942,0.04125
11.4141,0.03844
11.434,0.03797
11.4538,0.03482
11.4737,0.03462
11.4935,0.03465
11.5134,0.03307
11.5332,0.03365
11.5531,0.03175
11.573,0.03093
11.5928,0.03227
11.6127,0.03179
11.6325,0.03134
11.6524,0.03215
11.6723,0.03047
11.6921,0.03084
11.712,0.03015
11.7318,0.02938
11.7517,0.03148
11.7715,0.03142
11.7914,0.03025
11.8113,0.02995
11.8311,0.02841
11.851,0.02989
11.8708,0.03025
11.8907,0.03075
11.9105,0.03017
11.9304,0.02839
11.9503,0.02939
11.9701,0.02933
11.99,0.02875
12.0098,0.02827
12.0297,0.0288
12.0496,0.02902
12.0694,0.02875
12.0893,0.02817
12.1091,0.02761
12.129,0.02816
12.1488,0.02738
12.1687,0.02597
12.1886,0.02683
12.2084,0.02778
12.2283,0.02799
12.2481,0.02786
12.268,0.0266
12.2878,0.02741
12.3077,0.02677
12.3276,0.02574
12.3474,0.02699
12.3673,0.02817
12.3871,0.02693
12.407,0.02607
12.4269,0.02491
12.4467,0.0253
12.4666,0.02602
12.4864,0.02615
12.5063,0.02576
12.5261,0.02507
12.546,0.02543
12.5659,0.02518
12.5857,0.02607
12.6056,0.0258
12.6254,0.02555
12.6453,0.02649
12.6651,0.02518
12.685,0.02554
12.7049,0.02491
12.7247,0.02592
12.7446,0.02471
12.7644,2.48E-02
12.7843,2.42E-02
12.8042,2.32E-02
12.824,2.45E-02
12.8439,2.47E-02
12.8637,2.49E-02
12.8836,2.39E-02
12.9034,2.33E-02
12.9233,2.48E-02
12.9432,0.02424
12.963,0.02462
12.9829,0.02394
13.0027,2.44E-02
13.0226,2.33E-02
13.0424,2.36E-02
13.0623,2.46E-02
13.0822,2.48E-02
13.102,2.55E-02
13.1219,2.50E-02
13.1417,2.51E-02
13.1616,2.54E-02
13.1815,2.60E-02
13.2013,0.02702
13.2212,0.02738
13.241,0.02917
13.2609,0.02915
13.2807,0.03075
13.3006,0.03214
13.3205,0.03296
13.3403,3.57E-02
13.3602,3.73E-02
13.38,4.10E-02
13.3999,0.04388
13.4197,0.0482
13.4396,0.05361
13.4595,0.06267
13.4793,0.06851
13.4992,0.07681
13.519,8.65E-02
13.5389,0.09761
13.5588,1.14E-01
13.5786,1.26E-01
13.5985,1.43E-01
13.6183,1.61E-01
13.6382,1.81E-01
13.658,0.19745
13.6779,2.17E-01
13.6978,2.28E-01
13.7176,2.31E-01
13.7375,2.19E-01
13.7573,1.90E-01
13.7772,1.54E-01
13.797,1.22E-01
13.8169,0.09973
13.8368,0.07664
13.8566,0.0678
13.8765,0.0563
13.8963,0.05162
13.9162,4.74E-02
13.9361,4.27E-02
13.9559,4.04E-02
13.9758,0.03708
13.9956,0.03671
14.0155,0.03346
14.0353,0.03209
14.0552,0.0327
14.0751,0.0331
14.0949,0.03327
14.1148,0.03218
14.1346,0.03214
14.1545,0.03366
14.1743,0.03341
14.1942,0.03192
14.2141,0.03222
14.2339,3.06E-02
14.2538,2.91E-02
14.2736,0.02736
14.2935,0.02568
14.3134,0.02522
14.3332,0.02179
14.3531,0.02282
14.3729,0.02213
14.3928,0.02114
14.4126,0.02104
14.4325,0.0213
14.4524,0.02048
14.4722,2.08E-02
14.4921,2.09E-02
14.5119,2.19E-02
14.5318,2.13E-02
14.5517,2.18E-02
14.5715,0.02303
14.5914,0.02264
14.6112,0.02373
14.6311,0.0266
14.6509,0.0268
14.6708,0.02605
14.6907,0.02938
14.7105,0.03192
14.7304,0.03323
14.7502,3.55E-02
14.7701,3.83E-02
14.7899,4.00E-02
14.8098,0.04189
14.8297,0.0422
14.8495,0.04349
14.8694,0.04424
14.8892,0.04763
14.9091,0.04852
14.929,0.05081
14.9488,0.04926
14.9687,0.05045
14.9885,0.04878
15.0084,0.04856
15.0282,0.04729
15.0481,0.04756
15.068,0.04922
15.0878,0.05131
15.1077,0.05519
15.1275,0.05928
15.1474,0.06476
15.1672,0.07076
15.1871,0.07709
15.207,0.08798
15.2268,0.09801
15.2467,0.10559
15.2665,0.11849
15.2864,0.12439
15.3063,0.13658
15.3261,0.13742
15.346,0.13461
15.3658,0.12149
15.3857,0.10784
15.4055,0.08578
15.4254,0.0707
15.4453,0.05817
15.4651,0.05107
15.485,0.04608
15.5048,0.04179
15.5247,0.04157
15.5445,0.04092
15.5644,0.04075
15.5843,0.04171
15.6041,0.04461
15.624,0.04599
15.6438,0.04836
15.6637,0.0501
15.6836,0.05191
15.7034,0.05073
15.7233,0.0526
15.7431,0.04997
15.763,0.04628
15.7828,0.04324
15.8027,0.03917
15.8226,0.03368
15.8424,0.03037
15.8623,0.02741
15.8821,0.02383
15.902,0.02206
15.9218,0.02019
15.9417,0.01775
15.9616,0.01802
15.9814,0.01657
16.0013,0.01616
16.0211,0.01685
16.041,0.01498
16.0609,0.0158
16.0807,0.0149
16.1006,0.0142
16.1204,0.01353
16.1403,0.01368
16.1601,0.01502
16.18,0.01354
16.1999,0.01382
16.2197,0.0129
16.2396,0.01388
16.2594,0.01274
16.2793,0.01349
16.2991,0.0131
16.319,0.0146
16.3389,0.01463
16.3587,0.01279
16.3786,0.01356
16.3984,0.01371
16.4183,0.01402
16.4382,0.01377
16.458,0.01296
16.4779,0.01246
16.4977,0.01341
16.5176,0.01293
16.5374,0.01326
16.5573,0.01362
16.5772,0.01392
16.597,0.0141
16.6169,0.01337
16.6367,0.01343
16.6566,0.01467
16.6764,0.01593
16.6963,0.01554
16.7162,0.01557
16.736,0.01609
16.7559,0.01627
16.7757,0.01638
16.7956,0.01791
16.8155,0.01789
16.8353,0.01641
16.8552,0.01632
16.875,0.01465
16.8949,0.01495
16.9147,0.01401
16.9346,0.01356
16.9545,0.01364
16.9743,0.0125
16.9942,0.01293
17.014,0.01232
17.0339,0.01265
17.0537,0.0134
17.0736,0.01395
17.0935,0.01232
17.1133,0.01354
17.1332,0.01404
17.153,0.01357
17.1729,0.01412
17.1928,0.01334
17.2126,0.0148
17.2325,0.0146
17.2523,0.01504
17.2722,0.01521
17.292,0.0165
17.3119,0.01685
17.3318,0.01828
17.3516,0.01775
17.3715,0.01771
17.3913,0.01998
17.4112,0.02128
17.431,0.02449
17.4509,0.02558
17.4708,0.0271
17.4906,0.0295
17.5105,0.03278
17.5303,0.03645
17.5502,0.03984
17.5701,0.0438
17.5899,0.04765
17.6098,0.05046
17.6296,0.05775
17.6495,0.06157
17.6693,0.06633
17.6892,0.07001
17.7091,0.07581
17.7289,0.07599
17.7488,0.07187
17.7686,0.06764
17.7885,0.06405
17.8083,0.05712
17.8282,0.05344
17.8481,0.04987
17.8679,0.04273
17.8878,0.03658
17.9076,0.03263
17.9275,0.02832
17.9474,0.02563
17.9672,0.02362
17.9871,0.02014
18.0069,0.01936
18.0268,0.01894
18.0466,0.01627
18.0665,0.01529
18.0864,0.01558
18.1062,0.01599
18.1261,0.01518
18.1459,0.01534
18.1658,0.01354
18.1856,0.01374
18.2055,0.01265
18.2254,0.01362
18.2452,0.01349
18.2651,0.01245
18.2849,0.01245
18.3048,0.01231
18.3247,0.01239
18.3445,0.01201
18.3644,0.01167
18.3842,0.01162
18.4041,0.01186
18.4239,0.01217
18.4438,0.01168
18.4637,0.01162
18.4835,0.01081
18.5034,0.01148
18.5232,0.01108
18.5431,0.01147
18.5629,0.01198
18.5828,0.01145
18.6027,0.0117
18.6225,0.0109
18.6424,0.01123
18.6622,0.01191
18.6821,0.01157
18.702,0.01093
18.7218,0.01206
18.7417,0.01125
18.7615,0.01306
18.7814,0.01198
18.8012,0.01248
18.8211,0.01309
18.841,0.01164
18.8608,0.01226
18.8807,0.01222
18.9005,0.01211
18.9204,0.01328
18.9402,0.01357
18.9601,0.01357
18.98,0.01457
18.9998,0.01502
19.0197,0.01558
19.0395,0.01696
19.0594,0.01786
19.0793,0.01785
19.0991,0.02012
19.119,0.02187
19.1388,0.02354
19.1587,0.02622
19.1785,0.02948
19.1984,0.03227
19.2183,0.03452
19.2381,0.03803
19.258,0.03888
19.2778,0.03923
19.2977,0.03909
19.3175,0.03769
19.3374,0.03617
19.3573,0.03313
19.3771,0.03431
19.397,0.03232
19.4168,0.03148
19.4367,0.02886
19.4566,0.02859
19.4764,0.02533
19.4963,0.02385
19.5161,0.02004
19.536,0.01872
19.5558,0.0188
19.5757,0.01771
19.5956,0.01752
19.6154,0.01685
19.6353,0.01599
19.6551,0.0161
19.675,0.01624
19.6948,0.01674
19.7147,0.01652
19.7346,0.01788
19.7544,0.01771
19.7743,0.01724
19.7941,0.01621
19.814,0.01577
19.8339,0.01569
19.8537,0.0168
19.8736,0.01498
19.8934,0.01529
19.9133,0.0173
19.9331,0.0183
19.953,0.01889
19.9729,0.01814
19.9927,0.02075
20.0126,0.02167
20.0324,0.02298
20.0523,0.02536
20.0721,0.02711
20.092,0.0292
20.1119,0.03009
20.1317,0.03508
20.1516,0.03741
20.1714,0.04051
20.1913,0.04192
20.2112,0.04635
20.231,0.05165
20.2509,0.05441
20.2707,0.05995
20.2906,0.05983
20.3104,0.06402
20.3303,0.06352
20.3502,0.06059
20.37,0.05869
20.3899,0.05407
20.4097,0.0483
20.4296,0.04232
20.4494,0.03913
20.4693,0.03741
20.4892,0.03771
20.509,0.03647
20.5289,0.0368
20.5487,0.03816
20.5686,0.03878
20.5885,0.03978
20.6083,0.03917
20.6282,0.03955
20.648,0.03719
20.6679,0.03423
20.6877,0.02908
20.7076,0.0252
20.7275,0.02184
20.7473,0.01867
20.7672,0.01711
20.787,0.01583
20.8069,0.01558
20.8267,0.01436
20.8466,0.01398
20.8665,0.01345
20.8863,0.01265
20.9062,0.01369
20.926,0.01265
20.9459,0.01206
20.9658,0.01287
20.9856,0.01165
21.0055,0.01223
21.0253,0.01087
21.0452,0.01095
21.065,0.0114
21.0849,0.01181
21.1048,0.01175
21.1246,0.01155
21.1445,0.01111
21.1643,0.01049
21.1842,0.01198
21.204,0.01095
21.2239,0.01142
21.2438,0.01097
21.2636,0.01235
21.2835,0.01093
21.3033,0.01053
21.3232,0.01189
21.3431,0.01104
21.3629,0.01092
21.3828,0.01022
21.4026,0.01104
21.4225,0.01108
21.4423,0.01157
21.4622,0.01172
21.4821,0.01199
21.5019,0.01121
21.5218,0.01114
21.5416,0.01092
21.5615,0.01164
21.5813,0.01189
21.6012,0.01114
21.6211,0.01245
21.6409,0.01165
21.6608,0.01317
21.6806,0.01207
21.7005,0.01323
21.7204,0.01234
21.7402,0.01263
21.7601,0.01423
21.7799,0.01222
21.7998,0.01248
21.8196,0.01314
21.8395,0.01173
21.8594,0.01243
21.8792,0.01175
21.8991,0.01131
21.9189,0.01226
21.9388,0.01147
21.9586,0.01263
21.9785,0.01215
21.9984,0.01331
22.0182,0.01328
22.0381,0.01253
22.0579,0.01451
22.0778,0.01443
22.0977,0.01426
22.1175,0.01395
22.1374,0.01463
22.1572,0.01635
22.1771,0.01772
22.1969,0.01732
22.2168,0.01929
22.2367,0.02076
22.2565,0.02176
22.2764,0.02355
22.2962,0.02354
22.3161,0.02672
22.3359,0.02836
22.3558,0.0302
22.3757,0.03304
22.3955,0.03449
22.4154,0.03702
22.4352,0.03892
22.4551,0.04212
22.475,0.04518
22.4948,0.04859
22.5147,0.05168
22.5345,0.05412
22.5544,0.05229
22.5742,0.05242
22.5941,0.04847
22.614,0.046
22.6338,0.04117
22.6537,0.03645
22.6735,0.03436
22.6934,0.03215
22.7132,0.02972
22.7331,0.0299
22.753,0.02873
22.7728,0.02808
22.7927,0.02802
22.8125,0.02647
22.8324,0.02583
22.8523,0.02561
22.8721,0.0232
22.892,0.02092
22.9118,0.01908
22.9317,0.01751
22.9515,0.01596
22.9714,0.01435
22.9913,0.01501
23.0111,0.0141
23.031,0.01318
23.0508,0.01279
23.0707,0.01331
23.0905,0.01354
23.1104,0.01159
23.1303,0.01187
23.1501,0.01151
23.17,0.01187
23.1898,0.01162
23.2097,0.01155
23.2296,0.0114
23.2494,0.01134
23.2693,0.01103
23.2891,0.01095
23.309,0.01106
23.3288,0.01033
23.3487,0.0108
23.3686,0.01223
23.3884,0.01256
23.4083,0.01267
23.4281,0.01207
23.448,0.01065
23.4678,0.01183
23.4877,0.01193
23.5076,0.01217
23.5274,0.01245
23.5473,0.01278
23.5671,0.01243
23.587,0.01262
23.6069,0.01293
23.6267,0.01271
23.6466,0.01356
23.6664,0.01357
23.6863,0.01387
23.7061,0.01356
23.726,0.0132
23.7459,0.01334
23.7657,0.01424
23.7856,0.0142
23.8054,0.01468
23.8253,0.01448
23.8451,0.01569
23.865,0.01554
23.8849,0.01635
23.9047,0.01599
23.9246,0.01632
23.9444,0.01739
23.9643,0.01711
23.9842,0.01655
24.004,0.01635
24.0239,0.01602
24.0437,0.01622
24.0636,0.01554
24.0834,0.01472
24.1033,0.01483
24.1232,0.01441
24.143,0.0147
24.1629,0.01493
24.1827,0.01583
24.2026,0.01614
24.2224,0.01716
24.2423,0.01813
24.2622,0.01888
24.282,0.01965
24.3019,0.02092
24.3217,0.02151
24.3416,0.02075
24.3615,0.02245
24.3813,0.02568
24.4012,0.02543
24.421,0.02708
24.4409,0.02878
24.4607,0.03238
24.4806,0.03363
24.5005,0.03599
24.5203,0.03772
24.5402,0.03962
24.56,0.04212
24.5799,0.04201
24.5997,0.0422
24.6196,0.04068
24.6395,0.03889
24.6593,0.03562
24.6792,0.03036
24.699,0.02699
24.7189,0.0246
24.7388,0.02213
24.7586,0.02151
24.7785,0.01984
24.7983,0.01785
24.8182,0.01697
24.838,0.01679
24.8579,0.01719
24.8778,0.01596
24.8976,0.0142
24.9175,0.01353
24.9373,0.014
24.9572,0.01368
24.977,0.01348
24.9969,0.01295
25.0168,0.01225
25.0366,0.01273
25.0565,0.01302
25.0763,0.01267
25.0962,0.01211
25.1161,0.01254
25.1359,0.0131
25.1558,0.01211
25.1756,0.01193
25.1955,0.01215
25.2153,0.01253
25.2352,0.01175
25.2551,0.0122
25.2749,0.01271
25.2948,0.01273
25.3146,0.01195
25.3345,0.01254
25.3543,0.01276
25.3742,0.01371
25.3941,0.01295
25.4139,0.01323
25.4338,0.01331
25.4536,0.0146
25.4735,0.01434
25.4934,0.01416
25.5132,0.01404
25.5331,0.01451
25.5529,0.0161
25.5728,0.01482
25.5926,0.01586
25.6125,0.0171
25.6324,0.01657
25.6522,0.01849
25.6721,0.01885
25.6919,0.01956
25.7118,0.02037
25.7316,0.02178
25.7515,0.02059
25.7714,0.02209
25.7912,0.02315
25.8111,0.02315
25.8309,0.02207
25.8508,0.02169
25.8707,0.02201
25.8905,0.02079
25.9104,0.0209
25.9302,0.02159
25.9501,0.01989
25.9699,0.02034
25.9898,0.02215
26.0097,0.02352
26.0295,0.02382
26.0494,0.02357
26.0692,0.0265
26.0891,0.02892
26.1089,0.02948
26.1288,0.03165
26.1487,0.03459
26.1685,0.03583
26.1884,0.03847
26.2082,0.04028
26.2281,0.04259
26.248,0.04385
26.2678,0.0467
26.2877,0.04973
26.3075,0.0519
26.3274,0.05446
26.3472,0.05837
26.3671,0.06237
26.387,0.06502
26.4068,0.06801
26.4267,0.07281
26.4465,0.07413
26.4664,0.08003
26.4862,0.07947
26.5061,0.07897
26.526,0.07288
26.5458,0.06736
26.5657,0.05893
26.5855,0.05201
26.6054,0.04764
26.6253,0.04099
26.6451,0.03885
26.665,0.03669
26.6848,0.03351
26.7047,0.03087
26.7245,0.02956
26.7444,0.02713
26.7643,0.02705
26.7841,0.02529
26.804,0.02409
26.8238,0.02315
26.8437,0.02145
26.8635,0.02055
26.8834,0.01913
26.9033,0.01872
26.9231,0.01898
26.943,0.01786
26.9628,0.01827
26.9827,0.01744
27.0026,0.01724
27.0224,0.01482
27.0423,0.01569
27.0621,0.01562
27.082,0.01429
27.1018,0.01529
27.1217,0.01395
27.1416,0.01438
27.1614,0.01401
27.1813,0.01435
27.2011,0.01436
27.221,0.01369
27.2408,0.01263
27.2607,0.01281
27.2806,0.01274
27.3004,0.01451
27.3203,0.01315
27.3401,0.01309
27.36,0.01349
27.3799,0.01196
27.3997,0.0125
27.4196,0.01237
27.4394,0.01193
27.4593,0.01246
27.4791,0.01231
27.499,0.01235
27.5189,0.01173
27.5387,0.01302
27.5586,0.0124
27.5784,0.01198
27.5983,0.01345
27.6181,0.01095
27.638,0.01292
27.6579,0.0125
27.6777,0.01354
27.6976,0.01267
27.7174,0.01256
27.7373,0.01323
27.7572,0.01274
27.777,0.01362
27.7969,0.01354
27.8167,0.01483
27.8366,0.01462
27.8564,0.01368
27.8763,0.01658
27.8962,0.01416
27.916,0.01694
27.9359,0.01557
27.9557,0.01697
27.9756,0.01749
27.9954,0.01861
28.0153,0.0183
28.0352,0.01909
28.055,0.01984
28.0749,0.02068
28.0947,0.0219
28.1146,0.02209
28.1345,0.02329
28.1543,0.02477
28.1742,0.02536
28.194,0.02761
28.2139,0.02881
28.2337,0.03009
28.2536,0.03078
28.2735,0.02941
28.2933,0.02973
28.3132,0.03008
28.333,0.02791
28.3529,0.02574
28.3727,0.02628
28.3926,0.02585
28.4125,0.0254
28.4323,0.02521
28.4522,0.02705
28.472,0.0271
28.4919,0.02688
28.5118,0.02769
28.5316,0.02828
28.5515,0.02828
28.5713,0.02832
28.5912,0.02987
28.611,0.03103
28.6309,0.03028
28.6508,0.02955
28.6706,0.02978
28.6905,0.02977
28.7103,0.02822
28.7302,0.02809
28.75,0.02943
28.7699,0.02842
28.7898,0.02664
28.8096,0.02742
28.8295,0.02744
28.8493,0.02808
28.8692,0.02761
28.8891,0.0275
28.9089,0.02626
28.9288,0.02409
28.9486,0.02282
28.9685,0.02142
28.9883,0.02094
29.0082,0.0195
29.0281,0.01834
29.0479,0.01849
29.0678,0.01872
29.0876,0.01751
29.1075,0.02019
29.1273,0.01861
29.1472,0.01961
29.1671,0.01898
29.1869,0.01973
29.2068,0.02027
29.2266,0.02102
29.2465,0.02114
29.2664,0.02106
29.2862,0.02262
29.3061,0.02316
29.3259,0.02396
29.3458,0.02434
29.3656,0.02434
29.3855,0.02217
29.4054,0.02383
29.4252,0.02415
29.4451,0.02287
29.4649,0.02301
29.4848,0.02307
29.5046,0.02363
29.5245,0.02507
29.5444,0.02579
29.5642,0.02714
29.5841,0.02914
29.6039,0.03109
29.6238,0.03022
29.6437,0.03184
29.6635,0.03479
29.6834,0.03594
29.7032,0.0375
29.7231,0.0395
29.7429,0.04112
29.7628,0.04454
29.7827,0.04496
29.8025,0.04784
29.8224,0.05008
29.8422,0.05008
29.8621,0.05544
29.8819,0.05779
29.9018,0.05741
29.9217,0.05739
29.9415,0.05903
29.9614,0.05873
29.9812,0.05479
30.0011,0.05092
30.021,0.04505
30.0408,0.04079
30.0607,0.03859
30.0805,0.03527
30.1004,0.03167
30.1202,0.03128
30.1401,0.02853
30.16,0.02927
30.1798,0.02577
30.1997,0.02719
30.2195,0.02441
30.2394,0.02497
30.2592,0.02437
30.2791,0.02239
30.299,0.02265
30.3188,0.02236
30.3387,0.02282
30.3585,0.0217
30.3784,0.02019
30.3983,0.01986
30.4181,0.01925
30.438,0.02008
30.4578,0.01962
30.4777,0.01878
30.4975,0.01813
30.5174,0.01736
30.5373,0.01806
30.5571,0.01738
30.577,0.01862
30.5968,0.01814
30.6167,0.0172
30.6365,0.0183
30.6564,0.01795
30.6763,0.01733
30.6961,0.01922
30.716,0.01875
30.7358,0.01883
30.7557,0.01931
30.7756,0.01892
30.7954,0.01897
30.8153,0.01942
30.8351,0.0197
30.855,0.01925
30.8748,0.02094
30.8947,0.02167
30.9146,0.02248
30.9344,0.02316
30.9543,0.02497
30.9741,0.02398
30.994,0.027
31.0138,0.02753
31.0337,0.02824
31.0536,0.03121
31.0734,0.03075
31.0933,0.03279
31.1131,0.03345
31.133,0.03435
31.1529,0.03449
31.1727,0.03451
31.1926,0.03539
31.2124,0.03516
31.2323,0.03578
31.2521,0.03482
31.272,0.03443
31.2919,0.03377
31.3117,0.03731
31.3316,0.0365
31.3514,0.03789
31.3713,0.03885
31.3911,0.04106
31.411,0.04063
31.4309,0.04437
31.4507,0.04541
31.4706,0.04842
31.4904,0.04831
31.5103,0.0494
31.5302,0.05023
31.55,0.04992
31.5699,0.04875
31.5897,0.0451
31.6096,0.04346
31.6294,0.03826
31.6493,0.03774
31.6692,0.03519
31.689,0.03392
31.7089,0.03226
31.7287,0.03218
31.7486,0.03022
31.7684,0.03156
31.7883,0.0308
31.8082,0.02961
31.828,0.03042
31.8479,0.02966
31.8677,0.02995
31.8876,0.02911
31.9075,0.0314
31.9273,0.03159
31.9472,0.03218
31.967,0.0327
31.9869,0.03359
32.0067,0.03421
32.0266,0.03435
32.0465,0.03702
32.0663,0.03629
32.0862,0.03589
32.106,0.03652
32.1259,0.03645
32.1457,0.03546
32.1656,0.03594
32.1855,0.03772
32.2053,0.03534
32.2252,0.03611
32.245,0.03466
32.2649,0.03683
32.2848,0.03388
32.3046,0.03312
32.3245,0.0336
32.3443,0.03302
32.3642,0.03209
32.384,0.03218
32.4039,0.02945
32.4238,0.02969
32.4436,0.02722
32.4635,0.02773
32.4833,0.02572
32.5032,0.02474
32.523,0.0239
32.5429,0.02187
32.5628,0.02226
32.5826,0.02081
32.6025,0.02001
32.6223,0.01877
32.6422,0.01852
32.6621,0.01814
32.6819,0.01733
32.7018,0.01691
32.7216,0.01565
32.7415,0.01526
32.7613,0.01681
32.7812,0.0168
32.8011,0.01605
32.8209,0.01599
32.8408,0.01652
32.8606,0.01605
32.8805,0.01604
32.9003,0.01722
32.9202,0.01779
32.9401,0.01769
32.9599,0.01744
32.9798,0.01803
32.9996,0.01686
33.0195,0.01856
33.0394,0.01846
33.0592,0.01903
33.0791,0.0183
33.0989,0.0181
33.1188,0.01604
33.1386,0.01622
33.1585,0.01504
33.1784,0.01353
33.1982,0.01343
33.2181,0.01232
33.2379,0.01299
33.2578,0.01222
33.2776,0.01078
33.2975,0.01134
33.3174,0.01121
33.3372,0.01114
33.3571,0.01159
33.3769,0.01162
33.3968,0.01165
33.4167,0.01087
33.4365,0.01157
33.4564,0.01139
33.4762,0.01098
33.4961,0.01077
33.5159,0.01018
33.5358,0.01092
33.5557,0.01036
33.5755,0.01062
33.5954,0.00955
33.6152,0.01109
33.6351,0.00983
33.655,0.01156
33.6748,0.01087
33.6947,0.01117
33.7145,0.01144
33.7344,0.01084
33.7542,0.0117
33.7741,0.01089
33.794,0.01123
33.8138,0.01226
33.8337,0.01267
33.8535,0.01155
33.8734,0.01203
33.8932,0.01262
33.9131,0.01318
33.933,0.01261
33.9528,0.01364
33.9727,0.01379
33.9925,0.0131
34.0124,0.01423
34.0323,0.01448
34.0521,0.01487
34.072,0.0149
34.0918,0.01715
34.1117,0.01644
34.1315,0.01619
34.1514,0.01898
34.1713,0.01976
34.1911,0.0205
34.211,0.01992
34.2308,0.02081
34.2507,0.02323
34.2705,0.02457
34.2904,0.02421
34.3103,0.02696
34.3301,0.02903
34.35,0.03001
34.3698,0.03338
34.3897,0.03349
34.4096,0.03436
34.4294,0.03657
34.4493,0.04126
34.4691,0.04117
34.489,0.04065
34.5088,0.04298
34.5287,0.04458
34.5486,0.04338
34.5684,0.04288
34.5883,0.04087
34.6081,0.03722
34.628,0.03549
34.6478,0.0346
34.6677,0.03263
34.6876,0.03184
34.7074,0.02951
34.7273,0.02884
34.7471,0.02576
34.767,0.02582
34.7869,0.02376
34.8067,0.02051
34.8266,0.01925
34.8464,0.01828
34.8663,0.01647
34.8861,0.01613
34.906,0.01594
34.9259,0.01474
34.9457,0.01418
34.9656,0.01546
34.9854,0.01515
35.0053,0.01499
35.0251,0.01558
35.045,0.01479
35.0649,0.01438
35.0847,0.01501
35.1046,0.01558
35.1244,0.01436
35.1443,0.01629
35.1642,0.01568
35.184,0.01658
35.2039,0.01635
35.2237,0.0171
35.2436,0.01769
35.2634,0.01769
35.2833,0.02001
35.3032,0.02102
35.323,0.02217
35.3429,0.02237
35.3627,0.02418
35.3826,0.02468
35.4024,0.02561
35.4223,0.02674
35.4422,0.02507
35.462,0.0244
35.4819,0.02421
35.5017,0.02217
35.5216,0.02159
35.5415,0.02032
35.5613,0.02086
35.5812,0.01937
35.601,0.0198
35.6209,0.02068
35.6407,0.02164
35.6606,0.02042
35.6805,0.02279
35.7003,0.02293
35.7202,0.02348
35.74,0.02468
35.7599,0.02657
35.7797,0.02822
35.7996,0.02856
35.8195,0.02967
35.8393,0.03152
35.8592,0.03128
35.879,0.03374
35.8989,0.03369
35.9188,0.03475
35.9386,0.03382
35.9585,0.03243
35.9783,0.03273
35.9982,0.03069
36.018,0.02905
36.0379,0.02773
36.0578,0.02513
36.0776,0.02419
36.0975,0.02564
36.1173,0.02412
36.1372,0.02104
36.157,0.02203
36.1769,0.02034
36.1968,0.01859
36.2166,0.01859
36.2365,0.01716
36.2563,0.01764
36.2762,0.01527
36.2961,0.01629
36.3159,0.01588
36.3358,0.01644
36.3556,0.01435
36.3755,0.01534
36.3953,0.0153
36.4152,0.01532
36.4351,0.01501
36.4549,0.01534
36.4748,0.01551
36.4946,0.0147
36.5145,0.0158
36.5343,0.01619
36.5542,0.01661
36.5741,0.01635
36.5939,0.01627
36.6138,0.01627
36.6336,0.01551
36.6535,0.01577
36.6734,0.01635
36.6932,0.0165
36.7131,0.01755
36.7329,0.01602
36.7528,0.01707
36.7726,0.01632
36.7925,0.01694
36.8124,0.0165
36.8322,0.0168
36.8521,0.01638
36.8719,0.01444
36.8918,0.01508
36.9116,0.01529
36.9315,0.01597
36.9514,0.01479
36.9712,0.01498
36.9911,0.01571
37.0109,0.01527
37.0308,0.01532
37.0507,0.01596
37.0705,0.01697
37.0904,0.01756
37.1102,0.01766
37.1301,0.01758
37.1499,0.01905
37.1698,0.01967
37.1897,0.01926
37.2095,0.01998
37.2294,0.02189
37.2492,0.02115
37.2691,0.02254
37.2889,0.02221
37.3088,0.02209
37.3287,0.02371
37.3485,0.02239
37.3684,0.02023
37.3882,0.01888
37.4081,0.01741
37.428,0.01704
37.4478,0.01582
37.4677,0.01369
37.4875,0.01315
37.5074,0.01396
37.5272,0.01351
37.5471,0.01273
37.567,0.01132
37.5868,0.01179
37.6067,0.00939
37.6265,0.00928
37.6464,0.00933
37.6662,0.00933
37.6861,0.008
37.706,0.00821
37.7258,0.00797
37.7457,0.00864
37.7655,0.00875
37.7854,0.00804
37.8053,0.00844
37.8251,0.00891
37.845,0.00962
37.8648,0.00842
37.8847,0.00838
37.9045,0.00864
37.9244,0.00872
37.9443,0.00869
37.9641,0.00848
37.984,0.00959
38.0038,0.0093
38.0237,0.00889
38.0435,0.00894
38.0634,0.01023
38.0833,0.01023
38.1031,0.00986
38.123,0.01053
38.1428,0.01037
38.1627,0.01086
38.1826,0.00927
38.2024,0.01075
38.2223,0.01
38.2421,0.01026
38.262,0.00955
38.2818,0.00938
38.3017,0.00959
38.3216,0.00962
38.3414,0.0098
38.3613,0.0116
38.3811,0.01026
38.401,0.01095
38.4208,0.01022
38.4407,0.01109
38.4606,0.0107
38.4804,0.01108
38.5003,0.01147
38.5201,0.01193
38.54,0.01151
38.5599,0.01193
38.5797,0.01245
38.5996,0.01204
38.6194,0.01334
38.6393,0.01356
38.6591,0.01278
38.679,0.01293
38.6989,0.01356
38.7187,0.01231
38.7386,0.01112
38.7584,0.01172
38.7783,0.01192
38.7981,0.01087
38.818,0.01109
38.8379,0.01167
38.8577,0.01181
38.8776,0.01184
38.8974,0.01078
38.9173,0.01215
38.9372,0.01157
38.957,0.01148
38.9769,0.01084
38.9967,0.01175
39.0166,0.01189
39.0364,0.01111
39.0563,0.0117
39.0762,0.01176
39.096,0.01168
39.1159,0.01168
39.1357,0.0116
39.1556,0.01172
39.1754,0.01123
39.1953,0.01131
39.2152,0.01239
39.235,0.0122
39.2549,0.01227
39.2747,0.01199
39.2946,0.01204
39.3145,0.01206
39.3343,0.01299
39.3542,0.01337
39.374,0.01325
39.3939,0.01477
39.4137,0.01348
39.4336,0.01409
39.4535,0.0142
39.4733,0.01395
39.4932,0.01468
39.513,0.01467
39.5329,0.01496
39.5527,0.01415
39.5726,0.01501
39.5925,0.01498
39.6123,0.01555
39.6322,0.01569
39.652,0.01716
39.6719,0.01663
39.6918,0.01725
39.7116,0.01839
39.7315,0.01942
39.7513,0.01981
39.7712,0.02143
39.791,0.02161
39.8109,0.02122
39.8308,0.02379
39.8506,0.02424
39.8705,0.02499
39.8903,0.02555
39.9102,0.028
39.93,0.02733
39.9499,0.02678
39.9698,0.02501
39.9896,0.02462
40.0095,0.02311
40.0293,0.02295
40.0492,0.02292
40.0691,0.01925
40.0889,0.02087
40.1088,0.01981
40.1286,0.01775
40.1485,0.01774
40.1683,0.01713
40.1882,0.01573
40.2081,0.01508
40.2279,0.0151
40.2478,0.01574
40.2676,0.0153
40.2875,0.01583
40.3073,0.01611
40.3272,0.01594
40.3471,0.01632
40.3669,0.01582
40.3868,0.01541
40.4066,0.01668
40.4265,0.01697
40.4464,0.01764
40.4662,0.01738
40.4861,0.01808
40.5059,0.01831
40.5258,0.01791
40.5456,0.01803
40.5655,0.01934
40.5854,0.0196
40.6052,0.01756
40.6251,0.01772
40.6449,0.01741
40.6648,0.017
40.6846,0.01733
40.7045,0.01727
40.7244,0.01649
40.7442,0.01607
40.7641,0.01585
40.7839,0.01476
40.8038,0.01463
40.8237,0.01382
40.8435,0.01287
40.8634,0.01329
40.8832,0.01331
40.9031,0.01326
40.9229,0.01487
40.9428,0.01415
40.9627,0.01449
40.9825,0.01565
41.0024,0.01515
41.0222,0.01493
41.0421,0.01586
41.0619,0.01657
41.0818,0.01725
41.1017,0.01649
41.1215,0.01669
41.1414,0.01744
41.1612,0.0173
41.1811,0.01774
41.201,0.01708
41.2208,0.01641
41.2407,0.01663
41.2605,0.0168
41.2804,0.01641
41.3002,0.01472
41.3201,0.01646
41.34,0.0158
41.3598,0.0159
41.3797,0.01507
41.3995,0.01431
41.4194,0.01334
41.4392,0.01325
41.4591,0.01323
41.479,0.0149
41.4988,0.01279
41.5187,0.0134
41.5385,0.01401
41.5584,0.01388
41.5783,0.01359
41.5981,0.01321
41.618,0.01371
41.6378,0.01416
41.6577,0.01543
41.6775,0.01476
41.6974,0.01616
41.7173,0.01795
41.7371,0.01692
41.757,0.01841
41.7768,0.01869
41.7967,0.02051
41.8165,0.02047
41.8364,0.02151
41.8563,0.02154
41.8761,0.02326
41.896,0.02443
41.9158,0.0268
41.9357,0.02654
41.9556,0.02618
41.9754,0.02844
41.9953,0.02813
42.0151,0.02755
42.035,0.02607
42.0548,0.02365
42.0747,0.0236
42.0946,0.02367
42.1144,0.02312
42.1343,0.02315
42.1541,0.02452
42.174,0.02496
42.1938,0.02592
42.2137,0.02649
42.2336,0.02742
42.2534,0.02694
42.2733,0.02842
42.2931,0.03001
42.313,0.02979
42.3329,0.03092
42.3527,0.03271
42.3726,0.03435
42.3924,0.03522
42.4123,0.0368
42.4321,0.03669
42.452,0.03854
42.4719,0.04196
42.4917,0.04009
42.5116,0.04271
42.5314,0.04426
42.5513,0.04628
42.5711,0.04599
42.591,0.04357
42.6109,0.04092
42.6307,0.03833
42.6506,0.03395
42.6704,0.03057
42.6903,0.02816
42.7102,0.02644
42.73,0.02518
42.7499,0.02223
42.7697,0.02301
42.7896,0.0214
42.8094,0.02179
42.8293,0.02137
42.8492,0.02231
42.869,0.02192
42.8889,0.02148
42.9087,0.02342
42.9286,0.02306
42.9484,0.02327
42.9683,0.02346
42.9882,0.02417
43.008,0.0252
43.0279,0.0263
43.0477,0.02654
43.0676,0.02763
43.0875,0.02883
43.1073,0.03005
43.1272,0.03011
43.147,0.03076
43.1669,0.03072
43.1867,0.03054
43.2066,0.02819
43.2265,0.02789
43.2463,0.02468
43.2662,0.02189
43.286,0.02051
43.3059,0.01852
43.3257,0.01856
43.3456,0.01751
43.3655,0.01702
43.3853,0.01658
43.4052,0.01644
43.425,0.01619
43.4449,0.01597
43.4648,0.01691
43.4846,0.01665
43.5045,0.01702
43.5243,0.01732
43.5442,0.01769
43.564,0.01707
43.5839,0.0166
43.6038,0.01741
43.6236,0.01593
43.6435,0.01534
43.6633,0.01421
43.6832,0.01541
43.703,0.01353
43.7229,0.01287
43.7428,0.0131
43.7626,0.01243
43.7825,0.01179
43.8023,0.01173
43.8222,0.01083
43.8421,0.01049
43.8619,0.01081
43.8818,0.01106
43.9016,0.0112
43.9215,0.01064
43.9413,0.01098
43.9612,0.01023
43.9811,0.01086
44.0009,0.01198
44.0208,0.01193
44.0406,0.01172
44.0605,0.01192
44.0803,0.01164
44.1002,0.01295
44.1201,0.01245
44.1399,0.01246
44.1598,0.01259
44.1796,0.01304
44.1995,0.01432
44.2194,0.01353
44.2392,0.01459
44.2591,0.01578
44.2789,0.01526
44.2988,0.01551
44.3186,0.01605
44.3385,0.01649
44.3584,0.01686
44.3782,0.01676
44.3981,0.01491
44.4179,0.01441
44.4378,0.01444
44.4576,0.01462
44.4775,0.01349
44.4974,0.01455
44.5172,0.01426
44.5371,0.01364
44.5569,0.01385
44.5768,0.01562
44.5967,0.01609
44.6165,0.01637
44.6364,0.01746
44.6562,0.01652
44.6761,0.01638
44.6959,0.017
44.7158,0.01853
44.7357,0.01962
44.7555,0.02056
44.7754,0.02034
44.7952,0.0222
44.8151,0.0232
44.8349,0.02342
44.8548,0.02368
44.8747,0.02512
44.8945,0.02574
44.9144,0.02469
44.9342,0.02574
44.9541,0.02513
44.974,0.02638
44.9938,0.02277
45.0137,0.02306
45.0335,0.02128
45.0534,0.02173
45.0732,0.0215
45.0931,0.02115
45.113,0.02157
45.1328,0.0204
45.1527,0.02095
45.1725,0.02213
45.1924,0.02067
45.2122,0.02348
45.2321,0.02197
45.252,0.02354
45.2718,0.02329
45.2917,0.02299
45.3115,0.02381
45.3314,0.02288
45.3513,0.02313
45.3711,0.02256
45.391,0.0226
45.4108,0.02236
45.4307,0.021
45.4505,0.02056
45.4704,0.01906
45.4903,0.01926
45.5101,0.01816
45.53,0.01772
45.5498,0.01797
45.5697,0.01624
45.5895,0.0161
45.6094,0.01534
45.6293,0.01532
45.6491,0.01287
45.669,0.01555
45.6888,0.01366
45.7087,0.01415
45.7286,0.01438
45.7484,0.01474
45.7683,0.01379
45.7881,0.01306
45.808,0.01253
45.8278,0.01287
45.8477,0.01176
45.8676,0.01251
45.8874,0.01222
45.9073,0.01286
45.9271,0.0117
45.947,0.01234
45.9668,0.01092
45.9867,0.01116
46.0066,0.01054
46.0264,0.00912
46.0463,0.00927
46.0661,0.0092
46.086,0.00947
46.1059,0.00783
46.1257,0.0075
46.1456,0.00738
46.1654,0.00719
46.1853,0.00693
46.2051,0.00722
46.225,0.00677
46.2449,0.00667
46.2647,0.00641
46.2846,0.00599
46.3044,0.00677
46.3243,0.00696
46.3441,0.00655
46.364,0.00647
46.3839,0.00646
46.4037,0.00714
46.4236,0.0066
46.4434,0.00588
46.4633,0.00698
46.4832,0.00602
46.503,0.00705
46.5229,0.0071
46.5427,0.00699
46.5626,0.00716
46.5824,0.00641
46.6023,0.00691
46.6222,0.00688
46.642,0.00699
46.6619,0.00646
46.6817,0.00682
46.7016,0.00705
46.7214,0.00693
46.7413,0.00711
46.7612,0.00711
46.781,0.00718
46.8009,0.00688
46.8207,0.00683
46.8406,0.00647
46.8605,0.00585
46.8803,0.00707
46.9002,0.00686
46.92,0.00691
46.9399,0.00674
46.9597,0.00675
46.9796,0.00785
46.9995,0.00696
47.0193,0.0066
47.0392,0.00688
47.059,0.00677
47.0789,0.00666
47.0987,0.00777
47.1186,0.00672
47.1385,0.00711
47.1583,0.0063
47.1782,0.00672
47.198,0.00643
47.2179,0.00588
47.2378,0.00654
47.2576,0.00579
47.2775,0.00588
47.2973,0.006
47.3172,0.00587
47.337,0.0061
47.3569,0.00561
47.3768,0.00546
47.3966,0.00479
47.4165,0.00523
47.4363,0.00543
47.4562,0.0054
47.476,0.00457
47.4959,0.00491
47.5158,0.00544
47.5356,0.0051
47.5555,0.0051
47.5753,0.00481
47.5952,0.00476
47.6151,0.00501
47.6349,0.00496
47.6548,0.00502
47.6746,0.00453
47.6945,0.0056
47.7143,0.00529
47.7342,0.00524
47.7541,0.00621
47.7739,0.00512
47.7938,0.00582
47.8136,0.00501
47.8335,0.00533
47.8533,0.00557
47.8732,0.00607
47.8931,0.00602
47.9129,0.0068
47.9328,0.00599
47.9526,0.00701
47.9725,0.00663
47.9924,0.00644
48.0122,0.00785
48.0321,0.00626
48.0519,0.00781
48.0718,0.00705
48.0916,0.00714
48.1115,0.00732
48.1314,0.00771
48.1512,0.00688
48.1711,0.00683
48.1909,0.00753
48.2108,0.00604
48.2306,0.00544
48.2505,0.00559
48.2704,0.006
48.2902,0.00602
48.3101,0.0054
48.3299,0.00515
48.3498,0.00521
48.3697,0.00533
48.3895,0.00502
48.4094,0.00571
48.4292,0.00489
48.4491,0.00473
48.4689,0.00518
48.4888,0.00414
48.5087,0.00415
48.5285,0.00453
48.5484,0.00525
48.5682,0.00557
48.5881,0.00521
48.6079,0.00379
48.6278,0.00527
48.6477,0.0046
48.6675,0.00518
48.6874,0.0053
48.7072,0.0061
48.7271,0.00543
48.747,0.00485
48.7668,0.00538
48.7867,0.00596
48.8065,0.00559
48.8264,0.00554
48.8462,0.00543
48.8661,0.00568
48.886,0.00636
48.9058,0.00591
48.9257,0.00544
48.9455,0.00538
48.9654,0.00638
48.9852,0.00649
49.0051,0.00605
49.025,0.00729
49.0448,0.00757
49.0647,0.00775
49.0845,0.00855
49.1044,0.00788
49.1243,0.0088
49.1441,0.00927
49.164,0.00802
49.1838,0.00935
49.2037,0.00796
49.2235,0.0084
49.2434,0.0095
49.2633,0.0108
49.2831,0.01025
49.303,0.01089
49.3228,0.01164
49.3427,0.01103
49.3625,0.01298
49.3824,0.01413
49.4023,0.01258
49.4221,0.0134
49.442,0.01317
49.4618,0.01232
49.4817,0.01393
49.5016,0.0125
49.5214,0.01388
49.5413,0.01359
49.5611,0.01318
49.581,0.01446
49.6008,0.01415
49.6207,0.01485
49.6406,0.01485
49.6604,0.01544
49.6803,0.01647
49.7001,0.01562
49.72,0.01635
49.7398,0.01649
49.7597,0.01546
49.7796,0.01609
49.7994,0.01692
49.8193,0.01574
49.8391,0.01647
49.859,0.01708
49.8789,0.01852
49.8987,0.01864
49.9186,0.01852
49.9384,0.0171
49.9583,0.01715
49.9781,0.01474
49.998,0.01441
50.0179,0.01405
50.0377,0.01317
50.0576,0.01335
50.0774,0.01265
50.0973,0.01259
50.1171,0.01022
50.137,0.01128
50.1569,0.0114
50.1767,0.01215
50.1966,0.01167
50.2164,0.01195
50.2363,0.01147
50.2562,0.0116
50.276,0.01265
50.2959,0.01175
50.3157,0.01274
50.3356,0.01245
50.3554,0.0132
50.3753,0.01274
50.3952,0.01215
50.415,0.01312
50.4349,0.01265
50.4547,0.01296
50.4746,0.01193
50.4944,0.01212
50.5143,0.01162
50.5342,0.01078
50.554,0.00911
50.5739,0.01013
50.5937,0.00883
50.6136,0.00959
50.6335,0.00997
50.6533,0.01002
50.6732,0.00942
50.693,0.00978
50.7129,0.00942
50.7327,0.00884
50.7526,0.00941
50.7725,0.00908
50.7923,0.00967
50.8122,0.00925
50.832,0.01092
50.8519,0.00876
50.8717,0.01033
50.8916,0.01101
50.9115,0.01081
50.9313,0.00994
50.9512,0.01014
50.971,0.01047
50.9909,0.00997
51.0108,0.01083
51.0306,0.01108
51.0505,0.0098
51.0703,0.00986
51.0902,0.01056
51.11,0.01045
51.1299,0.00942
51.1498,0.01129
51.1696,0.01031
51.1895,0.01073
51.2093,0.01049
51.2292,0.01109
51.249,0.01062
51.2689,0.0115
51.2888,0.01204
51.3086,0.01271
51.3285,0.01178
51.3483,0.01111
51.3682,0.0117
51.3881,0.01248
51.4079,0.01136
51.4278,0.01207
51.4476,0.01111
51.4675,0.01106
51.4873,0.01067
51.5072,0.01039
51.5271,0.01117
51.5469,0.01039
51.5668,0.01009
51.5866,0.00948
51.6065,0.00917
51.6263,0.01023
51.6462,0.00961
51.6661,0.00958
51.6859,0.00916
51.7058,0.00927
51.7256,0.009
51.7455,0.00775
51.7654,0.00903
51.7852,0.00875
51.8051,0.00998
51.8249,0.01
51.8448,0.00842
51.8646,0.00972
51.8845,0.00903
51.9044,0.00922
51.9242,0.01023
51.9441,0.01041
51.9639,0.01117
51.9838,0.00997
52.0036,0.01
52.0235,0.00951
52.0434,0.01072
52.0632,0.01008
52.0831,0.01003
52.1029,0.0088
52.1228,0.00948
52.1427,0.00981
52.1625,0.00822
52.1824,0.0088
52.2022,0.00919
52.2221,0.00902
52.2419,0.00919
52.2618,0.0086
52.2817,0.00938
52.3015,0.00944
52.3214,0.00863
52.3412,0.00833
52.3611,0.0092
52.3809,0.00772
52.4008,0.0085
52.4207,0.00875
52.4405,0.00852
52.4604,0.00844
52.4802,0.00733
52.5001,0.00827
52.52,0.00872
52.5398,0.00786
52.5597,0.00785
52.5795,0.00758
52.5994,0.00702
52.6192,0.00738
52.6391,0.00647
52.659,0.00714
52.6788,0.00707
52.6987,0.0069
52.7185,0.0066
52.7384,0.00644
52.7583,0.00752
52.7781,0.00718
52.798,0.00797
52.8178,0.00685
52.8377,0.00701
52.8575,0.00701
52.8774,0.00757
52.8973,0.00765
52.9171,0.00777
52.937,0.00808
52.9568,0.00772
52.9767,0.00841
52.9965,0.00923
53.0164,0.00753
53.0363,0.00747
53.0561,0.00699
53.076,0.00775
53.0958,0.00752
53.1157,0.00753
53.1356,0.00727
53.1554,0.00841
53.1753,0.00718
53.1951,0.00802
53.215,0.00766
53.2348,0.00771
53.2547,0.00702
53.2746,0.00772
53.2944,0.00847
53.3143,0.00749
53.3341,0.00821
53.354,0.0076
53.3738,0.00765
53.3937,0.00816
53.4136,0.00832
53.4334,0.00872
53.4533,0.00788
53.4731,0.00724
53.493,0.00774
53.5129,0.00705
53.5327,0.00768
53.5526,0.00662
53.5724,0.00574
53.5923,0.00679
53.6121,0.00658
53.632,0.00651
53.6519,0.00708
53.6717,0.00571
53.6916,0.00623
53.7114,0.00615
53.7313,0.00626
53.7511,0.00596
53.771,0.00647
53.7909,0.00672
53.8107,0.00702
53.8306,0.00629
53.8504,0.00727
53.8703,0.00694
53.8902,0.00775
53.91,0.00744
53.9299,0.0073
53.9497,0.00752
53.9696,0.00747
53.9894,0.00765
54.0093,0.00768
54.0292,0.00814
54.049,0.00735
54.0689,0.00813
54.0887,0.00817
54.1086,0.00845
54.1284,0.00828
54.1483,0.00804
54.1682,0.00888
54.188,0.00894
54.2079,0.00844
54.2277,0.00835
54.2476,0.00864
54.2675,0.00861
54.2873,0.00778
54.3072,0.00802
54.327,0.00984
54.3469,0.00881
54.3667,0.00892
54.3866,0.00899
54.4065,0.00953
54.4263,0.00842
54.4462,0.00867
54.466,0.00986
54.4859,0.0093
54.5057,0.01003
54.5256,0.00956
54.5455,0.00946
54.5653,0.00923
54.5852,0.00824
54.605,0.00891
54.6249,0.00817
54.6448,0.00907
54.6646,0.00975
54.6845,0.00905
54.7043,0.00994
54.7242,0.00912
54.744,0.00925
54.7639,0.00894
54.7838,0.00972
54.8036,0.00923
54.8235,0.00942
54.8433,0.00958
54.8632,0.01006
54.883,0.0091
54.9029,0.0098
54.9228,0.01083
54.9426,0.01053
54.9625,0.0103
54.9823,0.01157
55.0022,0.01145
55.0221,0.01239
55.0419,0.01231
55.0618,0.01092
55.0816,0.01201
55.1015,0.01262
55.1213,0.01381
55.1412,0.01293
55.1611,0.01296
55.1809,0.014
55.2008,0.01364
55.2206,0.01261
55.2405,0.01354
55.2603,0.01328
55.2802,0.01569
55.3001,0.01495
55.3199,0.01532
55.3398,0.0153
55.3596,0.0164
55.3795,0.01596
55.3994,0.0183
55.4192,0.01783
55.4391,0.01601
55.4589,0.01792
55.4788,0.01852
55.4986,0.01774
55.5185,0.0168
55.5384,0.01527
55.5582,0.01495
55.5781,0.01519
55.5979,0.0147
55.6178,0.01491
55.6376,0.01438
55.6575,0.01292
55.6774,0.01258
55.6972,0.01331
55.7171,0.01276
55.7369,0.01306
55.7568,0.01203
55.7767,0.01212
55.7965,0.01211
55.8164,0.0112
55.8362,0.01151
55.8561,0.01121
55.8759,0.01175
55.8958,0.0116
55.9157,0.011
55.9355,0.01073
55.9554,0.01131
55.9752,0.01153
55.9951,0.01148
56.0149,0.01215
56.0348,0.01111
56.0547,0.01191
56.0745,0.01053
56.0944,0.01065
56.1142,0.01047
56.1341,0.0095
56.154,0.00922
56.1738,0.00953
56.1937,0.00967
56.2135,0.00813
56.2334,0.00774
56.2532,0.00774
56.2731,0.00845
56.293,0.00769
56.3128,0.00757
56.3327,0.00674
56.3525,0.00739
56.3724,0.00702
56.3922,0.00662
56.4121,0.00736
56.432,0.00662
56.4518,0.00674
56.4717,0.00621
56.4915,0.00643
56.5114,0.00679
56.5313,0.00686
56.5511,0.00672
56.571,0.00623
56.5908,0.00574
56.6107,0.00643
56.6305,0.00537
56.6504,0.00605
56.6703,0.0058
56.6901,0.00643
56.71,0.00566
56.7298,0.00621
56.7497,0.00604
56.7695,0.00639
56.7894,0.00538
56.8093,0.00611
56.8291,0.00679
56.849,0.00554
56.8688,0.00742
56.8887,0.00644
56.9086,0.00574
56.9284,0.00629
56.9483,0.00682
56.9681,0.00698
56.988,0.00677
57.0078,0.00739
57.0277,0.00713
57.0476,0.00769
57.0674,0.00845
57.0873,0.0075
57.1071,0.00822
57.127,0.00886
57.1468,0.00899
57.1667,0.00908
57.1866,0.00842
57.2064,0.00936
57.2263,0.00997
57.2461,0.01033
57.266,0.01042
57.2859,0.01093
57.3057,0.01109
57.3256,0.01207
57.3454,0.01117
57.3653,0.01225
57.3851,0.0124
57.405,0.01259
57.4249,0.01211
57.4447,0.01237
57.4646,0.01214
57.4844,0.01207
57.5043,0.01178
57.5241,0.01167
57.544,0.01151
57.5639,0.01153
57.5837,0.01292
57.6036,0.01193
57.6234,0.01095
57.6433,0.00987
57.6632,0.01061
57.683,0.01108
57.7029,0.01109
57.7227,0.01156
57.7426,0.01075
57.7624,0.01186
57.7823,0.01119
57.8022,0.01028
57.822,0.01112
57.8419,0.01083
57.8617,0.01139
57.8816,0.01139
57.9014,0.01075
57.9213,0.01014
57.9412,0.00966
57.961,0.01167
57.9809,0.01073
58.0007,0.01098
58.0206,0.00995
58.0405,0.00974
58.0603,0.01025
58.0802,0.01003
58.1,0.00927
58.1199,0.01072
58.1397,0.00855
58.1596,0.00925
58.1795,0.0097
58.1993,0.00892
58.2192,0.00941
58.239,0.00939
58.2589,0.00903
58.2787,0.00899
58.2986,0.00847
58.3185,0.00842
58.3383,0.00939
58.3582,0.00961
58.378,0.00883
58.3979,0.00928
58.4178,0.00842
58.4376,0.00763
58.4575,0.00777
58.4773,0.00828
58.4972,0.00847
58.517,0.00789
58.5369,0.00758
58.5568,0.0071
58.5766,0.00802
58.5965,0.00733
58.6163,0.00763
58.6362,0.00769
58.656,0.00696
58.6759,0.00774
58.6958,0.00772
58.7156,0.00718
58.7355,0.00838
58.7553,0.00716
58.7752,0.00825
58.7951,0.00777
58.8149,0.00811
58.8348,0.00841
58.8546,0.00832
58.8745,0.00861
58.8943,0.00875
58.9142,0.00892
58.9341,0.00922
58.9539,0.00883
58.9738,0.00972
58.9936,0.00936
59.0135,0.00992
59.0333,0.01031
59.0532,0.00975
59.0731,0.01075
59.0929,0.01078
59.1128,0.01061
59.1326,0.01125
59.1525,0.01162
59.1724,0.01282
59.1922,0.01274
59.2121,0.01245
59.2319,0.01299
59.2518,0.01409
59.2716,0.01384
59.2915,0.01298
59.3114,0.01369
59.3312,0.0124
59.3511,0.0127
59.3709,0.01271
59.3908,0.01243
59.4106,0.01179
59.4305,0.0112
59.4504,0.0117
59.4702,0.01142
59.4901,0.01078
59.5099,0.01014
59.5298,0.00995
59.5497,0.0095
59.5695,0.00874
59.5894,0.00876
59.6092,0.00799
59.6291,0.00855
59.6489,0.0088
59.6688,0.00805
59.6887,0.0084
59.7085,0.00742
59.7284,0.00738
59.7482,0.00747
59.7681,0.00769
59.7879,0.00749
59.8078,0.00777
59.8277,0.00736
59.8475,0.00796
59.8674,0.00778
59.8872,0.00714
59.9071,0.00727
59.927,0.00783
59.9468,0.00763
59.9667,0.00774
59.9865,0.00665
60.0064,0.00703
60.0262,0.0075
60.0461,0.00613
60.066,0.00694
60.0858,0.00733
60.1057,0.00746
60.1255,0.00705
60.1454,0.00811
60.1652,0.00791
60.1851,0.00738
60.205,0.00788
60.2248,0.00777
60.2447,0.00771
60.2645,0.00827
60.2844,0.00836
60.3043,0.00726
60.3241,0.00698
60.344,0.00708
60.3638,0.00702
60.3837,0.00736
60.4035,0.00675
60.4234,0.00626
60.4433,0.00711
60.4631,0.00651
60.483,0.00736
60.5028,0.00726
60.5227,0.00633
60.5425,0.0071
60.5624,0.0061
60.5823,0.00736
60.6021,0.00685
60.622,0.00713
60.6418,0.00757
60.6617,0.00763
60.6816,0.00755
60.7014,0.00719
60.7213,0.00814
60.7411,0.00817
60.761,0.00808
60.7808,0.00836
60.8007,0.00774
60.8206,0.00852
60.8404,0.00817
60.8603,0.00861
60.8801,0.00866
60.9,0.00757
60.9198,0.009
60.9397,0.00772
60.9596,0.00799
60.9794,0.00811
60.9993,0.00853
61.0191,0.008
61.039,0.00793
61.0589,0.0076
61.0787,0.00819
61.0986,0.00802
61.1184,0.00935
61.1383,0.00911
61.1581,0.0085
61.178,0.00923
61.1979,0.00975
61.2177,0.00942
61.2376,0.00923
61.2574,0.00977
61.2773,0.00986
61.2971,0.00888
61.317,0.01083
61.3369,0.00997
61.3567,0.01065
61.3766,0.0102
61.3964,0.00864
61.4163,0.00912
61.4362,0.00951
61.456,0.01037
61.4759,0.00916
61.4957,0.00911
61.5156,0.0092
61.5354,0.00967
61.5553,0.00941
61.5752,0.00908
61.595,0.00938
61.6149,0.00964
61.6347,0.00987
61.6546,0.00902
61.6744,0.00983
61.6943,0.00984
61.7142,0.01072
61.734,0.01059
61.7539,0.01072
61.7737,0.01183
61.7936,0.01114
61.8135,0.01111
61.8333,0.01087
61.8532,0.0117
61.873,0.01198
61.8929,0.01075
61.9127,0.01273
61.9326,0.01179
61.9525,0.01248
61.9723,0.01223
61.9922,0.01183
62.012,0.01243
62.0319,0.01151
62.0517,0.01237
62.0716,0.01368
62.0915,0.01246
62.1113,0.01295
62.1312,0.01246
62.151,0.01309
62.1709,0.01148
62.1908,0.01092
62.2106,0.01162
62.2305,0.00977
62.2503,0.0103
62.2702,0.01065
62.29,0.00939
62.3099,0.00861
62.3298,0.01
62.3496,0.00947
62.3695,0.00863
62.3893,0.00897
62.4092,0.00747
62.429,0.00802
62.4489,0.00711
62.4688,0.00749
62.4886,0.00705
62.5085,0.00641
62.5283,0.00691
62.5482,0.00691
62.5681,0.00674
62.5879,0.00683
62.6078,0.00646
62.6276,0.0075
62.6475,0.00679
62.6673,0.00666
62.6872,0.0071
62.7071,0.00722
62.7269,0.00623
62.7468,0.00652
62.7666,0.00658
62.7865,0.00683
62.8063,0.00649
62.8262,0.00663
62.8461,0.00559
62.8659,0.00713
62.8858,0.00705
62.9056,0.00574
62.9255,0.00732
62.9454,0.00703
62.9652,0.00724
62.9851,0.00765
63.0049,0.00761
63.0248,0.00696
63.0446,0.00772
63.0645,0.00828
63.0844,0.00796
63.1042,0.00752
63.1241,0.00713
63.1439,0.00699
63.1638,0.00703
63.1836,0.00686
63.2035,0.0066
63.2234,0.00667
63.2432,0.00595
63.2631,0.00703
63.2829,0.00619
63.3028,0.00607
63.3227,0.00568
63.3425,0.00588
63.3624,0.00533
63.3822,0.00546
63.4021,0.00593
63.4219,0.00566
63.4418,0.00579
63.4617,0.00599
63.4815,0.00543
63.5014,0.00593
63.5212,0.00484
63.5411,0.00525
63.5609,0.00585
63.5808,0.00549
63.6007,0.00563
63.6205,0.00596
63.6404,0.00493
63.6602,0.00513
63.6801,0.0052
63.7,0.00491
63.7198,0.00571
63.7397,0.00572
63.7595,0.00535
63.7794,0.00474
63.7992,0.00551
63.8191,0.0056
63.839,0.00616
63.8588,0.00518
63.8787,0.00595
63.8985,0.00502
63.9184,0.00458
63.9382,0.00559
63.9581,0.00557
63.978,0.00597
63.9978,0.0047
64.0177,0.00449
64.0375,0.00524
64.0574,0.00476
64.0773,0.00453
64.0971,0.0047
64.117,0.00479
64.1368,0.0052
64.1567,0.00541
64.1765,0.00445
64.1964,0.00515
64.2163,0.00484
64.2361,0.00515
64.256,0.00629
64.2758,0.00476
64.2957,0.00513
64.3155,0.00572
64.3354,0.00616
64.3553,0.00624
64.3751,0.00591
64.395,0.00621
64.4148,0.00644
64.4347,0.0059
64.4546,0.0063
64.4744,0.00551
64.4943,0.00655
64.5141,0.00746
64.534,0.00741
64.5538,0.0068
64.5737,0.00755
64.5936,0.00863
64.6134,0.0083
64.6333,0.00794
64.6531,0.00856
64.673,0.00942
64.6928,0.01061
64.7127,0.0091
64.7326,0.01041
64.7524,0.01059
64.7723,0.00978
64.7921,0.01203
64.812,0.01073
64.8319,0.01086
64.8517,0.01196
64.8716,0.01042
64.8914,0.01051
64.9113,0.01145
64.9311,0.01053
64.951,0.00925
64.9709,0.00936
64.9907,0.00841
65.0106,0.0084
65.0304,0.00789
65.0503,0.00802
65.0701,0.00825
65.09,0.00761
65.1099,0.00702
65.1297,0.00698
65.1496,0.00708
65.1694,0.00679
65.1893,0.00569
65.2092,0.00677
65.229,0.00714
65.2489,0.00577
65.2687,0.00541
65.2886,0.0066
65.3084,0.00538
65.3283,0.00515
65.3482,0.00529
65.368,0.00563
65.3879,0.00548
65.4077,0.00454
65.4276,0.00501
65.4474,0.00538
65.4673,0.00571
65.4872,0.00546
65.507,0.00468
65.5269,0.00515
65.5467,0.00476
65.5666,0.0051
65.5865,0.00518
65.6063,0.00505
65.6262,0.0052
65.646,0.00541
65.6659,0.00588
65.6857,0.00513
65.7056,0.00462
65.7255,0.0043
65.7453,0.00538
65.7652,0.00572
65.785,0.00455
65.8049,0.00512
65.8247,0.00516
65.8446,0.00412
65.8645,0.00521
65.8843,0.00448
65.9042,0.00477
65.924,0.00493
65.9439,0.00409
65.9638,0.00549
65.9836,0.00435
66.0035,0.00502
66.0233,0.00611
66.0432,0.00537
66.063,0.00485
66.0829,0.00527
66.1028,0.0049
66.1226,0.00566
66.1425,0.0047
66.1623,0.00593
66.1822,0.00548
66.202,0.006
66.2219,0.00611
66.2418,0.00621
66.2616,0.00667
66.2815,0.00707
66.3013,0.00669
66.3212,0.00699
66.3411,0.00744
66.3609,0.0084
66.3808,0.00778
66.4006,0.00845
66.4205,0.00825
66.4403,0.00867
66.4602,0.00891
66.4801,0.00914
66.4999,0.0102
66.5198,0.00972
66.5396,0.01045
66.5595,0.01026
66.5793,0.01084
66.5992,0.01092
66.6191,0.01129
66.6389,0.01186
66.6588,0.0122
66.6786,0.01106
66.6985,0.01187
66.7184,0.01172
66.7382,0.01139
66.7581,0.01058
66.7779,0.0109
66.7978,0.01054
66.8176,0.00978
66.8375,0.00955
66.8574,0.00987
66.8772,0.0093
66.8971,0.0097
66.9169,0.01033
66.9368,0.01026
66.9566,0.00903
66.9765,0.00907
66.9964,0.00892
67.0162,0.00841
67.0361,0.00939
67.0559,0.00805
67.0758,0.00903
67.0957,0.00984
67.1155,0.00874
67.1354,0.00922
67.1552,0.00912
67.1751,0.00922
67.1949,0.0088
67.2148,0.00828
67.2347,0.00858
67.2545,0.00808
67.2744,0.00732
67.2942,0.00788
67.3141,0.00777
67.3339,0.00786
67.3538,0.00699
67.3737,0.00742
67.3935,0.00638
67.4134,0.00682
67.4332,0.00719
67.4531,0.00694
67.473,0.00624
67.4928,0.00686
67.5127,0.00708
67.5325,0.0059
67.5524,0.00627
67.5722,0.00638
67.5921,0.00576
67.612,0.00497
67.6318,0.00501
67.6517,0.0059
67.6715,0.00449
67.6914,0.00476
67.7112,0.00418
67.7311,0.00476
67.751,0.00443
67.7708,0.00449
67.7907,0.0047
67.8105,0.00501
67.8304,0.00421
67.8503,0.00518
67.8701,0.00421
67.89,0.00468
67.9098,0.00368
67.9297,0.00449
67.9495,0.00384
67.9694,0.00455
67.9893,0.00384
68.0091,0.00509
68.029,0.00474
68.0488,0.00482
68.0687,0.00505
68.0885,0.00423
68.1084,0.00504
68.1283,0.0047
68.1481,0.00457
68.168,0.00458
68.1878,0.00556
68.2077,0.00437
68.2276,0.00489
68.2474,0.0058
68.2673,0.00524
68.2871,0.00489
68.307,0.00516
68.3268,0.00537
68.3467,0.00493
68.3666,0.00569
68.3864,0.00584
68.4063,0.00518
68.4261,0.00561
68.446,0.00512
68.4658,0.00651
68.4857,0.00582
68.5056,0.0052
68.5254,0.0053
68.5453,0.00549
68.5651,0.00463
68.585,0.00516
68.6049,0.00505
68.6247,0.00463
68.6446,0.00434
68.6644,0.00427
68.6843,0.00455
68.7041,0.00396
68.724,0.00368
68.7439,0.0042
68.7637,0.00401
68.7836,0.00457
68.8034,0.0034
68.8233,0.00417
68.8431,0.00427
68.863,0.0042
68.8829,0.00484
68.9027,0.00434
68.9226,0.0041
68.9424,0.00401
68.9623,0.00435
68.9822,0.00481
69.002,0.0047
69.0219,0.00442
69.0417,0.00559
69.0616,0.00484
69.0814,0.00457
69.1013,0.00568
69.1212,0.00512
69.141,0.00563
69.1609,0.00582
69.1807,0.0054
69.2006,0.00629
69.2204,0.00574
69.2403,0.00595
69.2602,0.00588
69.28,0.0063
69.2999,0.00597
69.3197,0.00541
69.3396,0.0054
69.3595,0.00518
69.3793,0.00466
69.3992,0.0041
69.419,0.0039
69.4389,0.0037
69.4587,0.00357
69.4786,0.00417
69.4985,0.00307
69.5183,0.00414
69.5382,0.00348
69.558,0.00382
69.5779,0.00339
69.5977,0.0027
69.6176,0.00326
69.6375,0.00309
69.6573,0.00332
69.6772,0.0036
69.697,0.00257
69.7169,0.00248
69.7368,0.00276
69.7566,0.00197
69.7765,0.00256
69.7963,0.00342
69.8162,0.00318
69.836,0.00328
69.8559,0.00254
69.8758,0.00295
69.8956,0.00248
69.9155,0.00273
69.9353,0.00278
69.9552,0.00303
69.975,0.00343
69.9949,0.00337
70.0148,0.00278
70.0346,0.00316
70.0545,0.00265
70.0743,0.00328
70.0942,0.00272
70.1141,0.00309
70.1339,0.00298
70.1538,0.00287
70.1736,0.00335
70.1935,0.00287
70.2133,0.0022
70.2332,0.0027
70.2531,0.00221
70.2729,0.00287
70.2928,0.00225
70.3126,0.00253
70.3325,0.00254
70.3523,0.00316
70.3722,0.00223
70.3921,0.00282
70.4119,0.00231
70.4318,0.00195
70.4516,0.00275
70.4715,0.00172
70.4914,0.00231
70.5112,0.00201
70.5311,0.0019
70.5509,0.00228
70.5708,0.00205
70.5906,0.00223
70.6105,0.00217
70.6304,0.00337
70.6502,0.00239
70.6701,0.00228
70.6899,0.00281
70.7098,0.00256
70.7296,0.00267
70.7495,0.00265
70.7694,0.00301
70.7892,0.00193
70.8091,0.00328
70.8289,0.00281
70.8488,0.0029
70.8687,0.0029
70.8885,0.00347
70.9084,0.00301
70.9282,0.00323
70.9481,0.00334
70.9679,0.00331
70.9878,0.00437
71.0077,0.00275
71.0275,0.00298
71.0474,0.00256
71.0672,0.00298
71.0871,0.0032
71.1069,0.00285
71.1268,0.00225
71.1467,0.00316
71.1665,0.00328
71.1864,0.00296
71.2062,0.00279
71.2261,0.00268
71.246,0.00311
71.2658,0.00265
71.2857,0.00309
71.3055,0.00378
71.3254,0.00335
71.3452,0.00343
71.3651,0.00323
71.385,0.00339
71.4048,0.0037
71.4247,0.00396
71.4445,0.00395
71.4644,0.00342
71.4842,0.00393
71.5041,0.00384
71.524,0.00414
71.5438,0.00373
71.5637,0.00462
71.5835,0.0049
71.6034,0.00423
71.6233,0.00527
71.6431,0.00491
71.663,0.00516
71.6828,0.00554
71.7027,0.00493
71.7225,0.00499
71.7424,0.00587
71.7623,0.00501
71.7821,0.0059
71.802,0.00548
71.8218,0.00588
71.8417,0.00543
71.8616,0.00595
71.8814,0.00521
71.9013,0.00554
71.9211,0.00591
71.941,0.00579
71.9608,0.00507
71.9807,0.00476
72.0006,0.00532
72.0204,0.00582
72.0403,0.00509
72.0601,0.0046
72.08,0.00426
72.0998,0.00474
72.1197,0.00477
72.1396,0.00473
72.1594,0.00385
72.1793,0.00384
72.1991,0.00445
72.219,0.00391
72.2389,0.00457
72.2587,0.00462
72.2786,0.00398
72.2984,0.00398
72.3183,0.00418
72.3381,0.00462
72.358,0.0035
72.3779,0.00471
72.3977,0.00412
72.4176,0.00502
72.4374,0.00454
72.4573,0.00404
72.4771,0.0034
72.497,0.00451
72.5169,0.00412
72.5367,0.0046
72.5566,0.00417
72.5764,0.00529
72.5963,0.00479
72.6162,0.00462
72.636,0.00448
72.6559,0.00443
72.6757,0.00423
72.6956,0.00487
72.7154,0.00501
72.7353,0.00524
72.7552,0.0054
72.775,0.00485
72.7949,0.00505
72.8147,0.00345
72.8346,0.00387
72.8544,0.00426
72.8743,0.0037
72.8942,0.00342
72.914,0.0043
72.9339,0.00311
72.9537,0.0032
72.9736,0.00249
72.9935,0.00374
73.0133,0.00368
73.0332,0.00334
73.053,0.00337
73.0729,0.00347
73.0927,0.0032
73.1126,0.00323
73.1325,0.00295
73.1523,0.00265
73.1722,0.00287
73.192,0.00278
73.2119,0.00352
73.2317,0.00328
73.2516,0.00359
73.2715,0.0027
73.2913,0.00246
73.3112,0.00295
73.331,0.00324
73.3509,0.00265
73.3708,0.00309
73.3906,0.00242
73.4105,0.00328
73.4303,0.00262
73.4502,0.00287
73.47,0.00249
73.4899,0.00342
73.5098,0.00223
73.5296,0.00267
73.5495,0.00228
73.5693,0.00298
73.5892,0.00273
73.609,0.00279
73.6289,0.00276
73.6488,0.0026
73.6686,0.00347
73.6885,0.00345
73.7083,0.00265
73.7282,0.0021
73.7481,0.00193
73.7679,0.00328
73.7878,0.003
73.8076,0.00203
73.8275,0.00275
73.8473,0.00264
73.8672,0.00246
73.8871,0.0017
73.9069,0.00245
73.9268,0.0022
73.9466,0.0017
73.9665,0.00198
73.9863,0.0029
74.0062,0.00159
74.0261,0.00156
74.0459,0.00236
74.0658,0.00267
74.0856,0.00282
74.1055,0.00248
74.1254,0.00275
74.1452,0.00198
74.1651,0.0024
74.1849,0.00282
74.2048,0.00234
74.2246,0.00178
74.2445,0.00254
74.2644,0.00162
74.2842,0.00195
74.3041,0.00205
74.3239,0.00201
74.3438,0.00256
74.3636,0.00172
74.3835,0.00215
74.4034,0.00242
74.4232,0.00215
74.4431,0.00165
74.4629,0.00128
74.4828,0.00244
74.5027,0.00179
74.5225,0.0017
74.5424,0.00137
74.5622,0.00125
74.5821,0.00122
74.6019,0.00181
74.6218,0.00178
74.6417,0.00156
74.6615,0.00208
74.6814,0.00115
74.7012,0.00139
74.7211,0.00125
74.7409,0.00184
74.7608,0.00169
74.7807,0.00126
74.8005,0.00215
74.8204,0.00153
74.8402,0.00109
74.8601,0.00151
74.88,0.00206
74.8998,0.00159
74.9197,0.00249
74.9395,0.0015
74.9594,0.0021
74.9792,0.0026
74.9991,0.00214
75.019,0.00176
75.0388,0.00242
75.0587,0.0027
75.0785,0.0013
75.0984,0.00272
75.1182,0.00217
75.1381,0.00187
75.158,0.00229
75.1778,0.0012
75.1977,0.00288
75.2175,0.0024
75.2374,0.00198
75.2573,0.00273
75.2771,0.00278
75.297,0.00239
75.3168,0.00234
75.3367,0.00285
75.3565,0.00244
75.3764,0.00236
75.3963,0.00161
75.4161,0.00201
75.436,0.00178
75.4558,0.00198
75.4757,0.00162
75.4955,0.00189
75.5154,0.0017
75.5353,0.00122
75.5551,0.00198
75.575,0.00128
75.5948,0.00162
75.6147,0.00137
75.6346,0.001
75.6544,9.37E-04
75.6743,0.00165
75.6941,0.00153
75.714,0.00153
75.7338,0.0013
75.7537,9.51E-04
75.7736,0.00143
75.7934,0.00117
75.8133,0.0014
75.8331,0.00151
75.853,0.00164
75.8728,0.00106
75.8927,7.35E-04
75.9126,0.00114
75.9324,7.20E-04
75.9523,0.00136
75.9721,0.00197
75.992,0.00126
76.0119,0.00148
76.0317,0.00201
76.0516,0.00162
76.0714,0.00143
76.0913,0.00143
76.1111,0.00133
76.131,0.00136
76.1509,0.00159
76.1707,0.00179
76.1906,0.00186
76.2104,0.00172
76.2303,0.00175
76.2501,7.20E-04
76.27,0.00117
76.2899,0.00117
76.3097,0.00122
76.3296,0.00143
76.3494,0.00173
76.3693,0.00139
76.3892,0.0015
76.409,0.00133
76.4289,0.00156
76.4487,0.00208
76.4686,0.00139
76.4884,0.00186
76.5083,0.00151
76.5282,0.00218
76.548,0.0012
76.5679,0.00205
76.5877,0.00172
76.6076,0.00208
76.6274,0.00192
76.6473,0.0019
76.6672,0.00195
76.687,0.0019
76.7069,0.00175
76.7267,0.00231
76.7466,0.00201
76.7665,0.00205
76.7863,0.00226
76.8062,0.00221
76.826,0.00169
76.8459,0.00195
76.8657,0.00259
76.8856,0.0017
76.9055,0.00192
76.9253,0.002
76.9452,0.00182
76.965,0.00197
76.9849,0.00105
77.0047,0.00156
77.0246,0.00128
77.0445,0.00205
77.0643,0.00189
77.0842,0.00189
77.104,0.00169
77.1239,0.00153
77.1438,0.00159
77.1636,0.00162
77.1835,0.00162
77.2033,0.00122
77.2232,8.58E-04
77.243,0.00139
77.2629,0.0012
77.2828,0.00175
77.3026,0.00167
77.3225,0.00122
77.3423,0.00182
77.3622,0.0015
77.382,0.00143
77.4019,0.0014
77.4218,0.00162
77.4416,0.00203
77.4615,0.00151
77.4813,0.00109
77.5012,0.00182
77.5211,0.00161
77.5409,0.00123
77.5608,0.00112
77.5806,0.00154
77.6005,0.00167
77.6203,0.00158
77.6402,0.00134
77.6601,0.00131
77.6799,0.00126
77.6998,8.73E-04
77.7196,0.00169
77.7395,0.00162
77.7593,0.00126
77.7792,9.81E-04
77.7991,0.00115
77.8189,0.00153
77.8388,6.56E-04
77.8586,8.58E-04
77.8785,8.28E-04
77.8984,8.87E-04
77.9182,0.00142
77.9381,0.00153
77.9579,7.00E-04
77.9778,0.00115
77.9976,0.00175
78.0175,0.00158
78.0374,5.92E-04
78.0572,0.00112
78.0771,7.20E-04
78.0969,0.00114
78.1168,0.00156
78.1366,9.66E-04
78.1565,0.00164
78.1764,0.00158
78.1962,0.00139
78.2161,0.00146
78.2359,0.00178
78.2558,0.00111
78.2757,9.51E-04
78.2955,0.00122
78.3154,0.00164
78.3352,0.00126
78.3551,0.00184
78.3749,0.00159
78.3948,0.00175
78.4147,0.0014
78.4345,0.0014
78.4544,0.00162
78.4742,0.00126
78.4941,0.00182
78.5139,0.00254
78.5338,0.00175
78.5537,0.00186
78.5735,0.0017
78.5934,0.00198
78.6132,0.00128
78.6331,0.00142
78.653,9.66E-04
78.6728,0.00128
78.6927,0.00126
78.7125,0.00117
78.7324,0.00164
78.7522,0.00133
78.7721,6.56E-04
78.792,8.58E-04
78.8118,9.66E-04
78.8317,9.07E-04
78.8515,3.89E-04
78.8714,7.64E-04
78.8912,0.00126
78.9111,0.00115
78.931,7.00E-04
78.9508,6.56E-04
78.9707,0.00109
78.9905,1.58E-04
79.0104,0.0014
79.0303,2.32E-04
79.0501,9.37E-04
79.07,8.28E-04
79.0898,0.00115
79.1097,0.00105
79.1295,9.37E-04
79.1494,0.00106
79.1693,0.00153
79.1891,4.04E-04
79.209,6.85E-04
79.2288,8.87E-04
79.2487,2.02E-04
79.2685,4.68E-04
79.2884,7.20E-04
79.3083,8.73E-04
79.3281,0.00106
79.348,0.00105
79.3678,6.06E-04
79.3877,7.00E-04
79.4076,9.81E-04
79.4274,1.23E-04
79.4473,3.89E-04
79.4671,2.81E-04
79.487,6.56E-04
79.5068,3.25E-04
79.5267,6.70E-04
79.5466,6.70E-04
79.5664,4.54E-04
79.5863,7.20E-04
79.6061,3.45E-04
79.626,5.77E-04
79.6458,7.00E-04
79.6657,6.70E-04
79.6856,3.45E-04
79.7054,7.64E-04
79.7253,5.62E-04
79.7451,5.77E-04
79.765,4.68E-04
79.7849,0
79.8047,5.77E-04
79.8246,6.56E-04
79.8444,3.25E-04
79.8643,9.37E-04
79.8841,7.49E-04
79.904,4.54E-04
79.9239,6.06E-04
79.9437,0.00109
79.9636,6.06E-04
79.9834,8.13E-04
80.0033,2.17E-04
