2(theta dregrees),Intensity  (a.u)
4,0.33012
4.02482,0.30289
4.04965,0.30052
4.07447,0.26755
4.09929,0.26112
4.12411,0.23338
4.14893,0.21072
4.17376,0.19635
4.19858,0.19838
4.2234,0.18045
4.24822,0.17419
4.27305,0.1654
4.29787,0.1676
4.32269,0.17369
4.34751,0.17149
4.37234,0.15931
4.39716,0.15796
4.42198,0.1539
4.4468,0.1632
4.47163,0.16032
4.49645,0.15627
4.52127,0.15779
4.54609,0.14663
4.57092,0.16219
4.59574,0.1561
4.62056,0.15441
4.64538,0.15305
4.67021,0.161
4.69503,0.15999
4.71985,0.14798
4.74467,0.15255
4.76949,0.13902
4.79432,0.16066
4.81914,0.15407
4.84396,0.15711
4.86878,0.14663
4.89361,0.16032
4.91843,0.15407
4.94325,0.16405
4.96807,0.15119
4.9929,0.15627
5.01772,0.14764
5.04254,0.14933
5.06736,0.15559
5.09219,0.14071
5.11701,0.14392
5.14183,0.15559
5.16665,0.13665
5.19148,0.14713
5.2163,0.15576
5.24112,0.14443
5.26594,0.14291
5.29077,0.14392
5.31559,0.13766
5.34041,0.14612
5.36523,0.14967
5.39005,0.15542
5.41488,0.15001
5.4397,0.1473
5.46452,0.1451
5.48934,0.15187
5.51417,0.15018
5.53899,0.15068
5.56381,0.14088
5.58863,0.14375
5.61346,0.14274
5.63828,0.14629
5.6631,0.14274
5.68792,0.15052
5.71275,0.15796
5.73757,0.15187
5.76239,0.14003
5.78721,0.14663
5.81204,0.13682
5.83686,0.1402
5.86168,0.1424
5.8865,0.14899
5.91133,0.14105
5.93615,0.13648
5.96097,0.13716
5.98579,0.138
6.01061,0.13986
6.03544,0.14341
6.06026,0.13225
6.08508,0.14155
6.1099,0.14781
6.13473,0.14088
6.15955,0.14189
6.18437,0.14003
6.20919,0.14849
6.23402,0.13918
6.25884,0.15001
6.28366,0.14121
6.30848,0.14747
6.33331,0.14916
6.35813,0.15136
6.38295,0.15322
6.40777,0.16117
6.4326,0.1725
6.45742,0.19584
6.48224,0.21799
6.50706,0.23913
6.53189,0.27262
6.55671,0.31947
6.58153,0.36208
6.60635,0.41857
6.63117,0.4463
6.656,0.51733
6.68082,0.58431
6.70564,0.64959
6.73046,0.68358
6.75529,0.72992
6.78011,0.69203
6.80493,0.65956
6.82975,0.5515
6.85458,0.41383
6.8794,0.28395
6.90422,0.20734
6.92904,0.16421
6.95387,0.15441
6.97869,0.15525
7.00351,0.14713
7.02833,0.13935
7.05316,0.14155
7.07798,0.13022
7.1028,0.13716
7.12762,0.1331
7.15245,0.13191
7.17727,0.13174
7.20209,0.12413
7.22691,0.11686
7.25173,0.13022
7.27656,0.11957
7.30138,0.13107
7.3262,0.12701
7.35102,0.12988
7.37585,0.13039
7.40067,0.1216
7.42549,0.13749
7.45031,0.12616
7.47514,0.12752
7.49996,0.12532
7.52478,0.12295
7.5496,0.11213
7.57443,0.11957
7.59925,0.13445
7.62407,0.12819
7.64889,0.12092
7.67372,0.12802
7.69854,0.11991
7.72336,0.12024
7.74818,0.11551
7.77301,0.1221
7.79783,0.12227
7.82265,0.10705
7.84747,0.1172
7.87229,0.10993
7.89712,0.10401
7.92194,0.12075
7.94676,0.11957
7.97158,0.11906
7.99641,0.11821
8.02123,0.13039
8.04605,0.1221
8.07087,0.12007
8.0957,0.12024
8.12052,0.12305
8.14534,0.12178
8.17016,0.12299
8.19499,0.12236
8.21981,0.12381
8.24463,0.12309
8.26945,0.12299
8.29428,0.1272
8.3191,0.12468
8.34392,0.12971
8.36874,0.12694
8.39357,0.13399
8.41839,0.13408
8.44321,0.1444
8.46803,0.15007
8.49285,0.15892
8.51768,0.16676
8.5425,0.17583
8.56732,0.18
8.59214,0.1825
8.61697,0.18321
8.64179,0.182
8.66661,0.18
8.69143,0.175
8.71626,0.17
8.74108,0.16
8.7659,0.15
8.79072,0.14
8.81555,0.13
8.84037,0.1289
8.86519,0.1237
8.89001,0.11978
8.91484,0.12532
8.93966,0.11437
8.96448,0.12312
8.9893,0.11323
9.01413,0.12275
9.03895,0.1209
9.06377,0.11511
9.08859,0.1274
9.11341,0.13501
9.13824,0.15552
9.16306,0.15601
9.18788,0.15402
9.2127,0.17822
9.23753,0.18668
9.26235,0.18435
9.28717,0.19525
9.31199,0.21232
9.33682,0.22533
9.36164,0.24611
9.38646,0.25191
9.41128,0.26523
9.43611,0.26846
9.46093,0.3067
9.48575,0.32018
9.51057,0.3526
9.5354,0.3526
9.56022,0.365
9.58504,0.35464
9.60986,0.3551
9.63469,0.32882
9.65951,0.33168
9.68433,0.27147
9.70915,0.22138
9.73397,0.19226
9.7588,0.1594
9.78362,0.14566
9.80844,0.14589
9.83326,0.14753
9.85809,0.1489
9.88291,0.14217
9.90773,0.12721
9.93255,0.12491
9.95738,0.13232
9.9822,0.11672
10.00702,0.12561
10.03184,0.12721
10.05667,0.12839
10.08149,0.1298
10.10631,0.10995
10.13113,0.11672
10.15596,0.09031
10.18078,0.08896
10.2056,0.08963
10.23042,0.09132
10.25525,0.09488
10.28007,0.09623
10.30489,0.09031
10.32971,0.08777
10.35453,0.09657
10.37936,0.09285
10.40418,0.08354
10.429,0.08321
10.45382,0.08591
10.47865,0.08557
10.50347,0.08135
10.52829,0.08541
10.55311,0.07407
10.57794,0.07779
10.60276,0.08507
10.62758,0.07526
10.6524,0.0783
10.67723,0.0783
10.70205,0.07289
10.72687,0.08371
10.75169,0.07915
10.77652,0.07763
10.80134,0.08524
10.82616,0.08033
10.85098,0.07847
10.87581,0.07627
10.90063,0.08321
10.92545,0.07881
10.95027,0.07357
10.97509,0.07272
10.99992,0.07593
11.02474,0.07018
11.04956,0.08202
11.07438,0.08625
11.09921,0.07593
11.12403,0.08338
11.14885,0.0849
11.17367,0.08963
11.1985,0.08168
11.22332,0.07949
11.24814,0.08354
11.27296,0.0849
11.29779,0.07052
11.32261,0.06629
11.34743,0.07796
11.37225,0.07441
11.39708,0.07323
11.4219,0.07137
11.44672,0.06883
11.47154,0.0734
11.49637,0.07374
11.52119,0.07526
11.54601,0.07763
11.57083,0.06985
11.59565,0.07171
11.62048,0.0646
11.6453,0.06934
11.67012,0.07171
11.69494,0.07204
11.71977,0.07255
11.74459,0.06579
11.76941,0.07255
11.79423,0.06629
11.81906,0.07407
11.84388,0.06849
11.8687,0.07779
11.89352,0.06968
11.91835,0.06968
11.94317,0.07052
11.96799,0.06579
11.99281,0.0641
12.01764,0.06274
12.04246,0.06731
12.06728,0.06934
12.0921,0.06156
12.11693,0.0668
12.14175,0.0712
12.16657,0.069
12.19139,0.06494
12.21621,0.07221
12.24104,0.06528
12.26586,0.06257
12.29068,0.07678
12.3155,0.06866
12.34033,0.06511
12.36515,0.06359
12.38997,0.06071
12.41479,0.06427
12.43962,0.06782
12.46444,0.06477
12.48926,0.0641
12.51408,0.07018
12.53891,0.06291
12.56373,0.06393
12.58855,0.069
12.61337,0.06799
12.6382,0.06815
12.66302,0.05902
12.68784,0.05987
12.71266,0.05936
12.73749,0.06308
12.76231,0.05733
12.78713,0.06427
12.81195,0.06511
12.83677,0.05665
12.8616,0.05598
12.88642,0.06224
12.91124,0.05733
12.93606,0.06274
12.96089,0.0575
12.98571,0.05852
13.01053,0.06257
13.03535,0.06325
13.06018,0.05818
13.085,0.05818
13.10982,0.06562
13.13464,0.06815
13.15947,0.06494
13.18429,0.07441
13.20911,0.07763
13.23393,0.08168
13.25876,0.09369
13.28358,0.09302
13.3084,0.10282
13.33322,0.11179
13.35805,0.11652
13.38287,0.13056
13.40769,0.13022
13.43251,0.1451
13.45733,0.14189
13.48216,0.15711
13.50698,0.16827
13.5318,0.1796
13.55662,0.17301
13.58145,0.18975
13.60627,0.17944
13.63109,0.1676
13.65591,0.16844
13.68074,0.14747
13.70556,1.26E-01
13.73038,1.03E-01
13.7552,8.51E-02
13.78003,7.29E-02
13.80485,7.63E-02
13.82967,6.39E-02
13.85449,6.82E-02
13.87932,6.88E-02
13.90414,7.15E-02
13.92896,0.06799
13.95378,0.07018
13.97861,0.06917
14.00343,8.64E-02
14.02825,8.68E-02
14.05307,9.12E-02
14.07789,9.15E-02
14.10272,9.81E-02
14.12754,1.02E-01
14.15236,1.13E-01
14.17718,1.03E-01
14.20201,1.06E-01
14.22683,1.00E-01
14.25165,0.09285
14.27647,0.07188
14.3013,0.07627
14.32612,0.06021
14.35094,0.05277
14.37576,0.05124
14.40059,0.05023
14.42541,5.63E-02
14.45023,5.63E-02
14.47505,5.38E-02
14.49988,0.05395
14.5247,0.05598
14.54952,0.05463
14.57434,0.05378
14.59917,0.06359
14.62399,0.0597
14.64881,5.87E-02
14.67363,0.06156
14.69845,6.63E-02
14.72328,6.27E-02
14.7481,6.87E-02
14.77292,6.65E-02
14.79774,7.41E-02
14.82257,0.07661
14.84739,8.59E-02
14.87221,8.20E-02
14.89703,8.59E-02
14.92186,8.51E-02
14.94668,8.44E-02
14.9715,9.17E-02
14.99632,9.39E-02
15.02115,0.08777
15.04597,0.09268
15.07079,0.10249
15.09561,0.10807
15.12044,0.10756
15.14526,1.10E-01
15.17008,1.16E-01
15.1949,1.09E-01
15.21973,0.12616
15.24455,0.12227
15.26937,0.11872
15.29419,0.1128
15.31901,0.12041
15.34384,0.09758
15.36866,0.08946
15.39348,0.08439
15.4183,0.09183
15.44313,0.08168
15.46795,0.08625
15.49277,0.08811
15.51759,0.0942
15.54242,9.62E-02
15.56724,1.01E-01
15.59206,0.11534
15.61688,0.11196
15.64171,0.12836
15.66653,0.13428
15.69135,0.1402
15.71617,0.15525
15.741,0.1632
15.76582,0.15627
15.79064,0.13259
15.81546,0.10874
15.84029,9.32E-02
15.86511,6.83E-02
15.88993,6.21E-02
15.91475,4.99E-02
15.93957,4.89E-02
15.9644,0.04262
15.98922,0.03704
16.01404,0.04042
16.03886,0.04025
16.06369,0.03822
16.08851,0.04448
16.11333,0.04363
16.13815,0.03957
16.16298,0.03568
16.1878,4.25E-02
16.21262,3.57E-02
16.23744,3.74E-02
16.26227,0.0389
16.28709,0.04127
16.31191,0.05412
16.33673,0.04245
16.36156,0.03805
16.38638,0.03907
16.4112,0.046
16.43602,0.04228
16.46085,0.04025
16.48567,0.04397
16.51049,0.03907
16.53531,0.04194
16.56013,0.03535
16.58496,0.0416
16.60978,0.04549
16.6346,0.03399
16.65942,0.04042
16.68425,0.0394
16.70907,0.03399
16.73389,0.04482
16.75871,0.04448
16.78354,0.0394
16.80836,0.04042
16.83318,0.03721
16.858,0.04515
16.88283,0.04329
16.90765,0.04482
16.93247,0.03619
16.95729,0.03957
16.98212,0.04532
17.00694,0.04482
17.03176,0.04571
17.05658,0.04589
17.08141,0.04818
17.10623,0.04838
17.13105,0.04838
17.15587,0.0528
17.18069,0.05644
17.20552,0.05734
17.23034,0.06257
17.25516,0.06244
17.27998,0.06668
17.30481,0.06623
17.32963,0.06825
17.35445,0.06589
17.37927,0.0686
17.4041,0.07492
17.42892,0.06836
17.45374,0.07908
17.47856,0.08293
17.50339,0.08506
17.52821,0.09541
17.55303,0.10958
17.57785,0.11681
17.60268,0.11977
17.6275,0.12467
17.65232,0.13508
17.67714,0.12803
17.70197,0.12683
17.72679,0.1046
17.75161,0.09154
17.77643,0.08135
17.80125,0.07103
17.82608,0.06365
17.8509,0.06216
17.87572,0.05981
17.90054,0.05603
17.92537,0.05438
17.95019,0.05312
17.97501,0.05461
17.99983,0.05461
18.02466,0.05687
18.04948,0.05578
18.0743,0.03991
18.09912,0.02757
18.12395,0.03163
18.14877,0.03754
18.17359,0.02858
18.19841,0.03484
18.22324,0.03179
18.24806,0.03315
18.27288,0.03332
18.2977,0.0279
18.32253,0.03298
18.34735,0.03112
18.37217,0.03687
18.39699,0.02554
18.42181,0.03213
18.44664,0.03535
18.47146,0.02807
18.49628,0.02909
18.5211,0.03112
18.54593,0.03653
18.57075,0.02351
18.59557,0.02774
18.62039,0.02976
18.64522,0.02841
18.67004,0.03399
18.69486,0.02469
18.71968,0.02807
18.74451,0.02452
18.76933,0.02554
18.79415,0.02824
18.81897,0.02807
18.8438,0.02554
18.86862,0.03213
18.89344,0.02976
18.91826,0.0389
18.94309,0.03044
18.96791,0.03264
18.99273,0.03382
19.01755,0.03315
19.04237,0.02706
19.0672,0.03484
19.09202,0.03602
19.11684,0.03822
19.14166,0.03551
19.16649,0.03873
19.19131,0.03839
19.21613,0.03365
19.24095,0.04025
19.26578,0.03535
19.2906,0.04177
19.31542,0.0367
19.34024,0.03822
19.36507,0.03585
19.38989,0.02993
19.41471,0.03754
19.43953,0.03332
19.46436,0.0345
19.48918,0.03146
19.514,0.02875
19.53882,0.02604
19.56365,0.02046
19.58847,0.0252
19.61329,0.03196
19.63811,0.02892
19.66293,0.02841
19.68776,0.0296
19.71258,0.03146
19.7374,0.0323
19.76222,0.0274
19.78705,0.02993
19.81187,0.02655
19.83669,0.03332
19.86151,0.03738
19.88634,0.0345
19.91116,0.03365
19.93598,0.03974
19.9608,0.04025
19.98563,0.04329
20.01045,0.04262
20.03527,0.05327
20.06009,0.04296
20.08492,0.05327
20.10974,0.04904
20.13456,0.05733
20.15938,0.05141
20.18421,0.05141
20.20903,0.05716
20.23385,0.05395
20.25867,0.05682
20.28349,0.05327
20.30832,0.05665
20.33314,0.04685
20.35796,0.04296
20.38278,0.0389
20.40761,0.03653
20.43243,0.03873
20.45725,0.04363
20.48207,0.04059
20.5069,0.03585
20.53172,0.03636
20.55654,0.03433
20.58136,0.04211
20.60619,0.03416
20.63101,0.03771
20.65583,0.03179
20.68065,0.03146
20.70548,0.02621
20.7303,0.02689
20.75512,0.02537
20.77994,0.02604
20.80477,0.01894
20.82959,0.02097
20.85441,0.02266
20.87923,0.02452
20.90405,0.02249
20.92888,0.01979
20.9537,0.02199
20.97852,0.02114
21.00334,0.01691
21.02817,0.01928
21.05299,0.01911
21.07781,0.0186
21.10263,0.01742
21.12746,0.02097
21.15228,0.01793
21.1771,0.02401
21.20192,0.01725
21.22675,0.01843
21.25157,0.01962
21.27639,0.02334
21.30121,0.02435
21.32604,0.02757
21.35086,0.02401
21.37568,0.01708
21.4005,0.02165
21.42533,0.0252
21.45015,0.01438
21.47497,0.01607
21.49979,0.02537
21.52461,0.01979
21.54944,0.01979
21.57426,0.01742
21.59908,0.023
21.6239,0.02401
21.64873,0.01218
21.67355,0.01894
21.69837,0.02266
21.72319,0.01505
21.74802,0.01556
21.77284,0.01996
21.79766,0.01928
21.82248,0.01911
21.84731,0.01776
21.87213,0.02199
21.89695,0.02334
21.92177,0.02013
21.9466,0.01911
21.97142,0.02232
21.99624,0.02418
22.02106,0.02909
22.04589,0.02655
22.07071,0.0274
22.09553,0.03061
22.12035,0.0279
22.14517,0.03095
22.17,0.03349
22.19482,0.03163
22.21964,0.03704
22.24446,0.03856
22.26929,0.03822
22.29411,0.04177
22.31893,0.04549
22.34375,0.04702
22.36858,0.04955
22.3934,0.04194
22.41822,0.0504
22.44304,0.04752
22.46787,0.04735
22.49269,0.04329
22.51751,0.04177
22.54233,0.04228
22.56716,0.03991
22.59198,0.03467
22.6168,0.02604
22.64162,0.03078
22.66645,0.02706
22.69127,0.03315
22.71609,0.03112
22.74091,0.02131
22.76573,0.02976
22.79056,0.01945
22.81538,0.02909
22.8402,0.02165
22.86502,0.02621
22.88985,0.01826
22.91467,0.02131
22.93949,0.02131
22.96431,0.02469
22.98914,0.02283
23.01396,0.01945
23.03878,0.0181
23.0636,0.023
23.08843,0.02097
23.11325,0.01962
23.13807,0.02215
23.16289,0.02199
23.18772,0.02046
23.21254,0.02317
23.23736,0.01759
23.26218,0.02401
23.28701,0.01877
23.31183,0.02199
23.33665,0.02029
23.36147,0.02215
23.38629,0.023
23.41112,0.02858
23.43594,0.02215
23.46076,0.02841
23.48558,0.02723
23.51041,0.02401
23.53523,0.0252
23.56005,0.02689
23.58487,0.02351
23.6097,0.02249
23.63452,0.02334
23.65934,0.0274
23.68416,0.02689
23.70899,0.02706
23.73381,0.02266
23.75863,0.02672
23.78345,0.02283
23.80828,0.02368
23.8331,0.02385
23.85792,0.02638
23.88274,0.02875
23.90757,0.02774
23.93239,0.02604
23.95721,0.03163
23.98203,0.02892
24.00685,0.03061
24.03168,0.0394
24.0565,0.02807
24.08132,0.02875
24.10614,0.03179
24.13097,0.03112
24.15579,0.03416
24.18061,0.03704
24.20543,0.0394
24.23026,0.03839
24.25508,0.03907
24.2799,0.03619
24.30472,0.0367
24.32955,0.04008
24.35437,0.04008
24.37919,0.04211
24.40401,0.04448
24.42884,0.03788
24.45366,0.03805
24.47848,0.04211
24.5033,0.04093
24.52813,0.0416
24.55295,0.04465
24.57777,0.03416
24.60259,0.03484
24.62741,0.03399
24.65224,0.03754
24.67706,0.03602
24.70188,0.02976
24.7267,0.02993
24.75153,0.0323
24.77635,0.03196
24.80117,0.02926
24.82599,0.02875
24.85082,0.03687
24.87564,0.03636
24.90046,0.03382
24.92528,0.03365
24.95011,0.03315
24.97493,0.04465
24.99975,0.04617
25.02457,0.04718
25.0494,0.04786
25.07422,0.04431
25.09904,0.04414
25.12386,0.04042
25.14869,0.04228
25.17351,0.05023
25.19833,0.03924
25.22315,0.03518
25.24797,0.03264
25.2728,0.03027
25.29762,0.03298
25.32244,0.03264
25.34726,0.02723
25.37209,0.03788
25.39691,0.02892
25.42173,0.03704
25.44655,0.03349
25.47138,0.03213
25.4962,0.03957
25.52102,0.04025
25.54584,0.02993
25.57067,0.03873
25.59549,0.03027
25.62031,0.0416
25.64513,0.03518
25.66996,0.03247
25.69478,0.03974
25.7196,0.03856
25.74442,0.04076
25.76925,0.04702
25.79407,0.03974
25.81889,0.03636
25.84371,0.04685
25.86853,0.03365
25.89336,0.04634
25.91818,0.04143
25.943,0.05378
25.96782,0.05344
25.99265,0.04921
26.01747,0.05192
26.04229,0.06207
26.06711,0.06511
26.09194,0.06832
26.11676,0.0668
26.14158,0.06613
26.1664,0.07526
26.19123,0.07357
26.21605,0.08541
26.24087,0.08202
26.26569,0.08862
26.29052,0.08879
26.31534,0.08879
26.34016,0.08625
26.36498,0.0876
26.38981,0.0991
26.41463,0.10063
26.43945,0.0991
26.46427,0.09826
26.48909,0.08997
26.51392,0.09657
26.53874,0.09792
26.56356,0.09741
26.58838,0.10266
26.61321,0.09369
26.63803,0.09572
26.66285,0.09893
26.68767,0.092
26.7125,0.08439
26.73732,0.08388
26.76214,0.08016
26.78696,0.07323
26.81179,0.07729
26.83661,0.06951
26.86143,0.07171
26.88625,0.06985
26.91108,0.07238
26.9359,0.07238
26.96072,0.07357
26.98554,0.07424
27.01037,0.07999
27.03519,0.0805
27.06001,0.07982
27.08483,0.07881
27.10965,0.08608
27.13448,0.0827
27.1593,0.07204
27.18412,0.06646
27.20894,0.0646
27.23377,0.06224
27.25859,0.06207
27.28341,0.06477
27.30823,0.06139
27.33306,0.06088
27.35788,0.06815
27.3827,0.06342
27.40752,0.0712
27.43235,0.05885
27.45717,0.06663
27.48199,0.06714
27.50681,0.06663
27.53164,0.06207
27.55646,0.06934
27.58128,0.07035
27.6061,0.07103
27.63093,0.07509
27.65575,0.07898
27.68057,0.07999
27.70539,0.08591
27.73021,0.09572
27.75504,0.10164
27.77986,0.10164
27.80468,0.10891
27.8295,0.1238
27.85433,0.10519
27.87915,0.11027
27.90397,0.11838
27.92879,0.10367
27.95362,0.08845
27.97844,0.08507
28.00326,0.08422
28.02808,0.09166
28.05291,0.08371
28.07773,0.07796
28.10255,0.08879
28.12737,0.0898
28.1522,0.09403
28.17702,0.09268
28.20184,0.09623
28.22666,0.09369
28.25149,0.10468
28.27631,0.09978
28.30113,0.10553
28.32595,0.10232
28.35077,0.10654
28.3756,0.10266
28.40042,0.11179
28.42524,0.12143
28.45006,0.13496
28.47489,0.13918
28.49971,0.1336
28.52453,0.14832
28.54935,0.1632
28.57418,0.16844
28.599,0.17453
28.62382,0.16996
28.64864,0.17977
28.67347,0.16574
28.69829,0.17994
28.72311,0.16337
28.74793,0.15999
28.77276,0.15356
28.79758,0.16641
28.8224,0.16134
28.84722,0.15745
28.87205,0.15711
28.89687,0.17013
28.92169,0.15931
28.94651,0.15441
28.97133,0.14291
28.99616,0.1336
29.02098,0.11957
29.0458,0.10807
29.07062,0.09082
29.09545,0.08439
29.12027,0.07949
29.14509,0.07982
29.16991,0.08507
29.19474,0.07593
29.21956,0.07932
29.24438,0.08473
29.2692,0.07999
29.29403,0.09099
29.31885,0.07644
29.34367,0.08541
29.36849,0.08794
29.39332,0.07982
29.41814,0.08777
29.44296,0.09217
29.46778,0.10638
29.49261,0.10249
29.51743,0.09877
29.54225,0.10063
29.56707,0.09369
29.59189,0.10976
29.61672,0.11399
29.64154,0.10553
29.66636,0.10925
29.69118,0.12566
29.71601,0.12312
29.74083,0.13005
29.76565,0.13428
29.79047,0.13462
29.8153,0.14088
29.84012,0.13293
29.86494,0.14392
29.88976,0.13496
29.91459,0.14899
29.93941,0.15474
29.96423,0.13039
29.98905,0.12684
30.01388,0.13022
30.0387,0.12396
30.06352,0.12143
30.08834,0.11246
30.11317,0.1172
30.13799,0.12684
30.16281,0.12024
30.18763,0.12143
30.21245,0.13259
30.23728,0.13918
30.2621,0.14409
30.28692,0.14646
30.31174,0.14899
30.33657,0.15001
30.36139,0.1539
30.38621,0.1676
30.41103,0.1747
30.43586,0.16996
30.46068,0.16388
30.4855,0.16235
30.51032,0.15407
30.53515,0.14696
30.55997,0.14375
30.58479,0.1287
30.60961,0.13783
30.63444,0.12887
30.65926,0.1216
30.68408,0.11838
30.7089,0.11788
30.73373,0.12193
30.75855,0.12075
30.78337,0.12718
30.80819,0.12971
30.83301,0.13546
30.85784,0.13716
30.88266,0.13986
30.90748,0.14713
30.9323,0.15407
30.95713,0.17859
30.98195,0.17047
31.00677,0.18738
31.03159,0.19516
31.05642,0.18671
31.08124,0.19905
31.10606,0.18772
31.13088,0.16963
31.15571,0.17013
31.18053,0.14815
31.20535,0.12075
31.23017,0.1216
31.255,0.10181
31.27982,0.10063
31.30464,0.10249
31.32946,0.0991
31.35429,0.09099
31.37911,0.09623
31.40393,0.1079
31.42875,0.10164
31.45357,0.09318
31.4784,0.09809
31.50322,0.10908
31.52804,0.10198
31.55286,0.10079
31.57769,0.10029
31.60251,0.10096
31.62733,0.10654
31.65215,0.09826
31.67698,0.11297
31.7018,0.10993
31.72662,0.11906
31.75144,0.13377
31.77627,0.1287
31.80109,0.12177
31.82591,0.1358
31.85073,0.13513
31.87556,0.14899
31.90038,0.14206
31.9252,0.1473
31.95002,0.14003
31.97485,0.14105
31.99967,0.16337
32.02449,0.1402
32.04931,0.15711
32.07413,0.14882
32.09896,0.15136
32.12378,0.16303
32.1486,0.16895
32.17342,0.16996
32.19825,0.17453
32.22307,0.1928
32.24789,0.19567
32.27271,0.20565
32.29754,0.21478
32.32236,0.2322
32.34718,0.24877
32.372,0.25605
32.39683,0.27634
32.42165,0.27448
32.44647,0.27431
32.47129,0.26721
32.49612,0.27499
32.52094,0.26839
32.54576,0.27363
32.57058,0.2503
32.59541,0.22696
32.62023,0.20244
32.64505,0.17825
32.66987,0.16844
32.69469,0.13005
32.71952,0.1216
32.74434,0.11179
32.76916,0.1035
32.79398,0.09251
32.81881,0.08473
32.84363,0.0783
32.86845,0.08219
32.89327,0.07002
32.9181,0.07695
32.94292,0.06832
32.96774,0.07171
32.99256,0.06308
33.01739,0.06528
33.04221,0.06968
33.06703,0.0641
33.09185,0.06274
33.11668,0.07035
33.1415,0.06274
33.16632,0.05733
33.19114,0.05682
33.21597,0.06274
33.24079,0.05801
33.26561,0.06359
33.29043,0.06088
33.31525,0.05767
33.34008,0.06224
33.3649,0.06088
33.38972,0.06748
33.41454,0.05479
33.43937,0.06004
33.46419,0.05767
33.48901,0.05277
33.51383,0.06257
33.53866,0.05699
33.56348,0.06562
33.5883,0.0553
33.61312,0.06342
33.63795,0.0619
33.66277,0.05868
33.68759,0.06207
33.71241,0.06122
33.73724,0.05446
33.76206,0.06173
33.78688,0.06596
33.8117,0.06883
33.83653,0.06528
33.86135,0.06765
33.88617,0.07018
33.91099,0.06393
33.93581,0.07289
33.96064,0.07035
33.98546,0.06782
34.01028,0.06799
34.0351,0.06832
34.05993,0.07238
34.08475,0.06832
34.10957,0.06832
34.13439,0.07407
34.15922,0.0712
34.18404,0.0641
34.20886,0.07526
34.23368,0.05547
34.25851,0.07238
34.28333,0.06207
34.30815,0.07069
34.33297,0.06985
34.3578,0.07018
34.38262,0.0756
34.40744,0.0827
34.43226,0.07052
34.45709,0.06917
34.48191,0.07813
34.50673,0.07086
34.53155,0.06799
34.55637,0.06629
34.5812,0.069
34.60602,0.06799
34.63084,0.06545
34.65566,0.06596
34.68049,0.06917
34.70531,0.07069
34.73013,0.07018
34.75495,0.07171
34.77978,0.07323
34.8046,0.06528
34.82942,0.06934
34.85424,0.06799
34.87907,0.06985
34.90389,0.07238
34.92871,0.06815
34.95353,0.069
34.97836,0.0783
35.00318,0.07526
35.028,0.08693
35.05282,0.06815
35.07765,0.069
35.10247,0.07154
35.12729,0.06866
35.15211,0.0641
35.17693,0.06629
35.20176,0.069
35.22658,0.07424
35.2514,0.06799
35.27622,0.07221
35.30105,0.07357
35.32587,0.06545
35.35069,0.06359
35.37551,0.07763
35.40034,0.07374
35.42516,0.0668
35.44998,0.0646
35.4748,0.07864
35.49963,0.07475
35.52445,0.07898
35.54927,0.07915
35.57409,0.0849
35.59892,0.09234
35.62374,0.10063
35.64856,0.09488
35.67338,0.10587
35.69821,0.11229
35.72303,0.12566
35.74785,0.12464
35.77267,0.11957
35.79749,0.12075
35.82232,0.11889
35.84714,0.1106
35.87196,0.10147
35.89678,0.09065
35.92161,0.08067
35.94643,0.07949
35.97125,0.0734
35.99607,0.05919
36.0209,0.06105
36.04572,0.05868
36.07054,0.0619
36.09536,0.05361
36.12019,0.05327
36.14501,0.04871
36.16983,0.0553
36.19465,0.05801
36.21948,0.05649
36.2443,0.06359
36.26912,0.0619
36.29394,0.06257
36.31877,0.0619
36.34359,0.07171
36.36841,0.06815
36.39323,0.07458
36.41805,0.08084
36.44288,0.08033
36.4677,0.08896
36.49252,0.08845
36.51734,0.0871
36.54217,0.10333
36.56699,0.0986
36.59181,0.09826
36.61663,0.10942
36.64146,0.11602
36.66628,0.11145
36.6911,0.11737
36.71592,0.12193
36.74075,0.13377
36.76557,0.13496
36.79039,0.12921
36.81521,0.13225
36.84004,0.12599
36.86486,0.12295
36.88968,0.11635
36.9145,0.10976
36.93933,0.10654
36.96415,0.09555
36.98897,0.08422
37.01379,0.07526
37.03861,0.07086
37.06344,0.06731
37.08826,0.0646
37.11308,0.05716
37.1379,0.05868
37.16273,0.06646
37.18755,0.04871
37.21237,0.05243
37.23719,0.05835
37.26202,0.05243
37.28684,0.05344
37.31166,0.04989
37.33648,0.05158
37.36131,0.03991
37.38613,0.04313
37.41095,0.04617
37.43577,0.04025
37.4606,0.04093
37.48542,0.03568
37.51024,0.04583
37.53506,0.04296
37.55989,0.03924
37.58471,0.03771
37.60953,0.03805
37.63435,0.03924
37.65917,0.03687
37.684,0.04025
37.70882,0.0411
37.73364,0.03788
37.75846,0.04194
37.78329,0.03653
37.80811,0.04262
37.83293,0.03974
37.85775,0.04245
37.88258,0.04059
37.9074,0.04076
37.93222,0.046
37.95704,0.04042
37.98187,0.04532
38.00669,0.03907
38.03151,0.04532
38.05633,0.04702
38.08116,0.03974
38.10598,0.04329
38.1308,0.04363
38.15562,0.04634
38.18045,0.0411
38.20527,0.04025
38.23009,0.04482
38.25491,0.04583
38.27973,0.05006
38.30456,0.04617
38.32938,0.04076
38.3542,0.04465
38.37902,0.04752
38.40385,0.04837
38.42867,0.046
38.45349,0.03957
38.47831,0.04566
38.50314,0.04904
38.52796,0.05192
38.55278,0.05496
38.5776,0.05598
38.60243,0.04837
38.62725,0.05412
38.65207,0.05767
38.67689,0.05327
38.70172,0.0619
38.72654,0.05699
38.75136,0.06545
38.77618,0.06646
38.80101,0.06443
38.82583,0.06308
38.85065,0.06156
38.87547,0.07323
38.90029,0.06985
38.92512,0.06917
38.94994,0.07188
38.97476,0.07424
38.99958,0.07255
39.02441,0.07052
39.04923,0.07712
39.07405,0.07424
39.09887,0.06088
39.1237,0.06934
39.14852,0.07154
39.17334,0.06342
39.19816,0.05784
39.22299,0.0646
39.24781,0.06054
39.27263,0.05496
39.29745,0.06021
39.32228,0.07475
39.3471,0.06359
39.37192,0.05361
39.39674,0.06274
39.42157,0.06494
39.44639,0.0646
39.47121,0.06477
39.49603,0.06038
39.52085,0.05023
39.54568,0.05682
39.5705,0.05919
39.59532,0.06071
39.62014,0.05919
39.64497,0.0646
39.66979,0.05665
39.69461,0.05801
39.71943,0.05547
39.74426,0.05649
39.76908,0.05852
39.7939,0.05767
39.81872,0.06596
39.84355,0.05378
39.86837,0.06731
39.89319,0.05581
39.91801,0.06646
39.94284,0.05581
39.96766,0.05632
39.99248,0.06122
40.0173,0.05141
40.04213,0.05953
40.06695,0.05919
40.09177,0.05835
40.11659,0.06782
40.14141,0.0646
40.16624,0.07069
40.19106,0.0783
40.21588,0.07864
40.2407,0.07475
40.26553,0.07932
40.29035,0.0756
40.31517,0.08727
40.33999,0.09065
40.36482,0.08152
40.38964,0.09488
40.41446,0.08236
40.43928,0.09048
40.46411,0.07796
40.48893,0.08405
40.51375,0.08608
40.53857,0.07712
40.5634,0.0756
40.58822,0.07086
40.61304,0.07407
40.63786,0.06579
40.66269,0.06866
40.68751,0.0624
40.71233,0.05953
40.73715,0.06731
40.76197,0.05733
40.7868,0.06054
40.81162,0.05226
40.83644,0.05784
40.86126,0.06207
40.88609,0.05277
40.91091,0.05649
40.93573,0.05378
40.96055,0.05378
40.98538,0.05801
41.0102,0.06291
41.03502,0.06038
41.05984,0.05395
41.08467,0.05327
41.10949,0.05665
41.13431,0.05649
41.15913,0.0553
41.18396,0.05784
41.20878,0.05277
41.2336,0.06494
41.25842,0.05226
41.28325,0.05006
41.30807,0.06359
41.33289,0.0504
41.35771,0.05446
41.38253,0.06038
41.40736,0.05479
41.43218,0.06071
41.457,0.05547
41.48182,0.06646
41.50665,0.07188
41.53147,0.06866
41.55629,0.06004
41.58111,0.06477
41.60594,0.07103
41.63076,0.06629
41.65558,0.06291
41.6804,0.07729
41.70523,0.069
41.73005,0.06934
41.75487,0.06629
41.77969,0.06917
41.80452,0.08253
41.82934,0.07458
41.85416,0.08828
41.87898,0.08236
41.90381,0.08168
41.92863,0.09082
41.95345,0.0876
41.97827,0.08828
42.00309,0.09183
42.02792,0.09082
42.05274,0.08354
42.07756,0.0898
42.10238,0.08405
42.12721,0.08659
42.15203,0.08338
42.17685,0.07238
42.20167,0.08608
42.2265,0.08304
42.25132,0.08557
42.27614,0.07746
42.30096,0.08219
42.32579,0.07796
42.35061,0.0739
42.37543,0.08321
42.40025,0.07813
42.42508,0.08913
42.4499,0.09318
42.47472,0.08608
42.49954,0.08879
42.52437,0.10063
42.54919,0.09877
42.57401,0.09893
42.59883,0.09792
42.62365,0.09809
42.64848,0.0986
42.6733,0.09454
42.69812,0.09386
42.72294,0.09792
42.74777,0.0991
42.77259,0.10435
42.79741,0.09369
42.82223,0.09318
42.84706,0.08693
42.87188,0.09132
42.8967,0.07915
42.92152,0.07712
42.94635,0.0712
42.97117,0.07864
42.99599,0.06224
43.02081,0.06629
43.04564,0.0575
43.07046,0.0668
43.09528,0.0624
43.1201,0.06021
43.14493,0.05852
43.16975,0.05919
43.19457,0.05327
43.21939,0.05632
43.24421,0.05124
43.26904,0.0482
43.29386,0.05446
43.31868,0.04735
43.3435,0.05581
43.36833,0.04566
43.39315,0.04499
43.41797,0.04532
43.44279,0.04786
43.46762,0.04786
43.49244,0.04803
43.51726,0.05141
43.54208,0.05209
43.56691,0.05243
43.59173,0.04702
43.61655,0.04989
43.64137,0.04938
43.6662,0.04532
43.69102,0.04279
43.71584,0.04566
43.74066,0.04296
43.76549,0.04143
43.79031,0.04211
43.81513,0.04888
43.83995,0.04127
43.86477,0.04786
43.8896,0.04194
43.91442,0.0438
43.93924,0.04042
43.96406,0.04177
43.98889,0.03957
44.01371,0.04093
44.03853,0.0416
44.06335,0.04668
44.08818,0.04177
44.113,0.04228
44.13782,0.04465
44.16264,0.04668
44.18747,0.03771
44.21229,0.04025
44.23711,0.04803
44.26193,0.04143
44.28676,0.046
44.31158,0.0411
44.3364,0.04228
44.36122,0.0389
44.38605,0.03754
44.41087,0.03991
44.43569,0.0416
44.46051,0.04448
44.48533,0.05006
44.51016,0.04363
44.53498,0.0416
44.5598,0.04532
44.58462,0.04854
44.60945,0.05293
44.63427,0.05852
44.65909,0.05868
44.68391,0.05463
44.70874,0.05446
44.73356,0.06105
44.75838,0.05902
44.7832,0.06359
44.80803,0.06173
44.83285,0.07018
44.85767,0.06629
44.88249,0.07475
44.90732,0.07661
44.93214,0.0805
44.95696,0.07881
44.98178,0.08659
45.00661,0.09132
45.03143,0.08642
45.05625,0.10536
45.08107,0.10688
45.10589,0.10874
45.13072,0.10536
45.15554,0.12024
45.18036,0.11821
45.20518,0.13327
45.23001,0.12041
45.25483,0.12498
45.27965,0.13174
45.30447,0.12177
45.3293,0.12413
45.35412,0.11618
45.37894,0.11821
45.40376,0.10773
45.42859,0.10096
45.45341,0.10063
45.47823,0.11027
45.50305,0.09369
45.52788,0.09826
45.5527,0.09437
45.57752,0.09014
45.60234,0.08219
45.62717,0.08473
45.65199,0.07678
45.67681,0.07661
45.70163,0.07137
45.72645,0.06697
45.75128,0.06105
45.7761,0.05564
45.80092,0.0531
45.82574,0.04955
45.85057,0.05293
45.87539,0.04329
45.90021,0.04143
45.92503,0.04194
45.94986,0.03095
45.97468,0.0345
45.9995,0.03095
46.02432,0.03112
46.04915,0.03433
46.07397,0.02588
46.09879,0.02435
46.12361,0.03027
46.14844,0.02148
46.17326,0.02604
46.19808,0.03061
46.2229,0.02926
46.24773,0.01945
46.27255,0.02469
46.29737,0.02317
46.32219,0.02841
46.34701,0.02199
46.37184,0.02841
46.39666,0.02418
46.42148,0.02317
46.4463,0.02807
46.47113,0.02469
46.49595,0.02774
46.52077,0.02774
46.54559,0.02418
46.57042,0.02148
46.59524,0.02266
46.62006,0.02131
46.64488,0.0301
46.66971,0.02418
46.69453,0.02182
46.71935,0.01657
46.74417,0.02418
46.769,0.01894
46.79382,0.01996
46.81864,0.02875
46.84346,0.02249
46.86829,0.02063
46.89311,0.02114
46.91793,0.01285
46.94275,0.02334
46.96757,0.02909
46.9924,0.02029
47.01722,0.02368
47.04204,0.02232
47.06686,0.02097
47.09169,0.01505
47.11651,0.02013
47.14133,0.02334
47.16615,0.02723
47.19098,0.01573
47.2158,0.02148
47.24062,0.01996
47.26544,0.02165
47.29027,0.01996
47.31509,0.01843
47.33991,0.02182
47.36473,0.02013
47.38956,0.02401
47.41438,0.01996
47.4392,0.02283
47.46402,0.02503
47.48885,0.01962
47.51367,0.01979
47.53849,0.02351
47.56331,0.01742
47.58813,0.02148
47.61296,0.01438
47.63778,0.01945
47.6626,0.02046
47.68742,0.02655
47.71225,0.01877
47.73707,0.01742
47.76189,0.02148
47.78671,0.01793
47.81154,0.01877
47.83636,0.0159
47.86118,0.02131
47.886,0.02588
47.91083,0.01945
47.93565,0.02182
47.96047,0.01996
47.98529,0.02232
48.01012,0.01911
48.03494,0.02334
48.05976,0.02232
48.08458,0.01505
48.10941,0.0159
48.13423,0.01793
48.15905,0.02503
48.18387,0.0159
48.20869,0.01167
48.23352,0.02215
48.25834,0.01962
48.28316,0.01776
48.30798,0.02571
48.33281,0.01996
48.35763,0.0208
48.38245,0.02148
48.40727,0.02334
48.4321,0.01573
48.45692,0.0164
48.48174,0.02114
48.50656,0.01725
48.53139,0.01911
48.55621,0.01201
48.58103,0.01793
48.60585,0.01556
48.63068,0.01776
48.6555,0.02148
48.68032,0.02232
48.70514,0.02317
48.72997,0.023
48.75479,0.01742
48.77961,0.0181
48.80443,0.023
48.82925,0.02486
48.85408,0.02486
48.8789,0.02215
48.90372,0.02401
48.92854,0.023
48.95337,0.01725
48.97819,0.02621
49.00301,0.02249
49.02783,0.02351
49.05266,0.02824
49.07748,0.02638
49.1023,0.02943
49.12712,0.03619
49.15195,0.03298
49.17677,0.02976
49.20159,0.04008
49.22641,0.03653
49.25124,0.0367
49.27606,0.0345
49.30088,0.04194
49.3257,0.04735
49.35053,0.04972
49.37535,0.04549
49.40017,0.04989
49.42499,0.0509
49.44981,0.05446
49.47464,0.05006
49.49946,0.05429
49.52428,0.04414
49.5491,0.0509
49.57393,0.05243
49.59875,0.0509
49.62357,0.05277
49.64839,0.06038
49.67322,0.05953
49.69804,0.06038
49.72286,0.06342
49.74768,0.06038
49.77251,0.06207
49.79733,0.05885
49.82215,0.06782
49.84697,0.06054
49.8718,0.05293
49.89662,0.06004
49.92144,0.05801
49.94626,0.04989
49.97109,0.05615
49.99591,0.0482
50.02073,0.04583
50.04555,0.03805
50.07037,0.04211
50.0952,0.03213
50.12002,0.03416
50.14484,0.02824
50.16966,0.02537
50.19449,0.03196
50.21931,0.02807
50.24413,0.02621
50.26895,0.02875
50.29378,0.02943
50.3186,0.02148
50.34342,0.02503
50.36824,0.02571
50.39307,0.02266
50.41789,0.02266
50.44271,0.02824
50.46753,0.02571
50.49236,0.02215
50.51718,0.02182
50.542,0.02266
50.56682,0.02638
50.59165,0.02215
50.61647,0.02283
50.64129,0.02334
50.66611,0.0301
50.69093,0.02046
50.71576,0.02993
50.74058,0.03281
50.7654,0.03044
50.79022,0.02706
50.81505,0.03535
50.83987,0.0345
50.86469,0.0252
50.88951,0.0389
50.91434,0.03805
50.93916,0.03822
50.96398,0.03738
50.9888,0.03535
51.01363,0.04093
51.03845,0.03382
51.06327,0.04143
51.08809,0.03467
51.11292,0.04431
51.13774,0.03653
51.16256,0.04279
51.18738,0.0345
51.21221,0.03991
51.23703,0.03771
51.26185,0.03721
51.28667,0.04093
51.31149,0.04668
51.33632,0.04685
51.36114,0.0531
51.38596,0.04651
51.41078,0.0438
51.43561,0.04482
51.46043,0.04786
51.48525,0.04837
51.51007,0.0504
51.5349,0.04735
51.55972,0.04329
51.58454,0.05057
51.60936,0.04668
51.63419,0.04499
51.65901,0.04871
51.68383,0.05141
51.70865,0.04617
51.73348,0.0411
51.7583,0.04329
51.78312,0.04448
51.80794,0.04042
51.83277,0.04245
51.85759,0.04482
51.88241,0.0482
51.90723,0.03771
51.93205,0.04583
51.95688,0.04143
51.9817,0.03771
52.00652,0.0438
52.03134,0.04465
52.05617,0.04752
52.08099,0.05835
52.10581,0.05277
52.13063,0.04871
52.15546,0.04617
52.18028,0.05023
52.2051,0.05293
52.22992,0.05344
52.25475,0.05547
52.27957,0.05564
52.30439,0.05564
52.32921,0.0575
52.35404,0.05124
52.37886,0.05006
52.40368,0.04363
52.4285,0.05378
52.45333,0.04752
52.47815,0.046
52.50297,0.04921
52.52779,0.04566
52.55261,0.04583
52.57744,0.04296
52.60226,0.04127
52.62708,0.0411
52.6519,0.03399
52.67673,0.0345
52.70155,0.04499
52.72637,0.04025
52.75119,0.04921
52.77602,0.03924
52.80084,0.03788
52.82566,0.04042
52.85048,0.03484
52.87531,0.04414
52.90013,0.0394
52.92495,0.04042
52.94977,0.04296
52.9746,0.03856
52.99942,0.04025
53.02424,0.0394
53.04906,0.0367
53.07389,0.03501
53.09871,0.0279
53.12353,0.0274
53.14835,0.03467
53.17317,0.02858
53.198,0.02757
53.22282,0.02638
53.24764,0.02368
53.27246,0.0186
53.29729,0.01708
53.32211,0.02249
53.34693,0.02199
53.37175,0.02774
53.39658,0.02182
53.4214,0.01793
53.44622,0.02182
53.47104,0.02554
53.49587,0.01877
53.52069,0.01708
53.54551,0.02114
53.57033,0.01945
53.59516,0.01235
53.61998,0.01979
53.6448,0.02148
53.66962,0.01167
53.69445,0.02215
53.71927,0.01945
53.74409,0.01624
53.76891,0.02097
53.79373,0.01911
53.81856,0.02114
53.84338,0.01539
53.8682,0.02368
53.89302,0.02503
53.91785,0.01759
53.94267,0.02148
53.96749,0.02841
53.99231,0.02013
54.01714,0.023
54.04196,0.03179
54.06678,0.02486
54.0916,0.02571
54.11643,0.02875
54.14125,0.03196
54.16607,0.02757
54.19089,0.0367
54.21572,0.03433
54.24054,0.0411
54.26536,0.04076
54.29018,0.03264
54.31501,0.04177
54.33983,0.03687
54.36465,0.04465
54.38947,0.04313
54.41429,0.04871
54.43912,0.03585
54.46394,0.04921
54.48876,0.04634
54.51358,0.05023
54.53841,0.05006
54.56323,0.05107
54.58805,0.05496
54.61287,0.05175
54.6377,0.05716
54.66252,0.05699
54.68734,0.04871
54.71216,0.05378
54.73699,0.06443
54.76181,0.06274
54.78663,0.05158
54.81145,0.05378
54.83628,0.06359
54.8611,0.05412
54.88592,0.05581
54.91074,0.05716
54.93557,0.06021
54.96039,0.06004
54.98521,0.05885
55.01003,0.06207
55.03485,0.0531
55.05968,0.05784
55.0845,0.06004
55.10932,0.06071
55.13414,0.05818
55.15897,0.05513
55.18379,0.0597
55.20861,0.04685
55.23343,0.0553
55.25826,0.04549
55.28308,0.04702
55.3079,0.04871
55.33272,0.04583
55.35755,0.04685
55.38237,0.04871
55.40719,0.05564
55.43201,0.04296
55.45684,0.04211
55.48166,0.03551
55.50648,0.04177
55.5313,0.04025
55.55613,0.03856
55.58095,0.03907
55.60577,0.04262
55.63059,0.0482
55.65541,0.05479
55.68024,0.04482
55.70506,0.05158
55.72988,0.05513
55.7547,0.04938
55.77953,0.04718
55.80435,0.05818
55.82917,0.046
55.85399,0.05987
55.87882,0.06274
55.90364,0.06224
55.92846,0.05513
55.95328,0.04702
55.97811,0.04262
56.00293,0.04397
56.02775,0.04025
56.05257,0.03974
56.0774,0.03061
56.10222,0.02841
56.12704,0.02858
56.15186,0.02875
56.17669,0.01607
56.20151,0.02435
56.22633,0.02469
56.25115,0.02232
56.27597,0.0208
56.3008,0.01759
56.32562,0.01911
56.35044,0.01962
56.37526,0.0181
56.40009,0.01928
56.42491,0.01776
56.44973,0.01945
56.47455,0.01404
56.49938,0.0137
56.5242,0.01488
56.54902,0.01776
56.57384,0.01607
56.59867,0.01285
56.62349,0.01657
56.64831,0.01302
56.67313,0.01488
56.69796,0.01319
56.72278,0.01843
56.7476,0.02029
56.77242,0.01218
56.79725,0.01573
56.82207,0.01285
56.84689,0.01488
56.87171,0.01624
56.89653,0.01353
56.92136,0.01607
56.94618,0.01116
56.971,0.01979
56.99582,0.02097
57.02065,0.02013
57.04547,0.01962
57.07029,0.01539
57.09511,0.01607
57.11994,0.02029
57.14476,0.02655
57.16958,0.023
57.1944,0.01607
57.21923,0.02401
57.24405,0.02148
57.26887,0.0159
57.29369,0.02266
57.31852,0.02976
57.34334,0.03196
57.36816,0.02824
57.39298,0.03298
57.41781,0.0345
57.44263,0.03636
57.46745,0.03179
57.49227,0.0389
57.51709,0.03399
57.54192,0.03805
57.56674,0.04515
57.59156,0.03061
57.61638,0.046
57.64121,0.04228
57.66603,0.04211
57.69085,0.05446
57.71567,0.046
57.7405,0.0411
57.76532,0.04769
57.79014,0.04329
57.81496,0.04803
57.83979,0.05124
57.86461,0.04752
57.88943,0.04296
57.91425,0.04837
57.93908,0.04279
57.9639,0.04617
57.98872,0.04904
58.01354,0.04042
58.03837,0.04346
58.06319,0.04177
58.08801,0.03991
58.11283,0.04769
58.13765,0.0416
58.16248,0.03907
58.1873,0.03433
58.21212,0.03788
58.23694,0.03788
58.26177,0.0345
58.28659,0.03873
58.31141,0.04431
58.33623,0.04279
58.36106,0.0367
58.38588,0.03332
58.4107,0.04296
58.43552,0.04262
58.46035,0.03924
58.48517,0.03416
58.50999,0.04296
58.53481,0.03653
58.55964,0.03704
58.58446,0.04076
58.60928,0.03332
58.6341,0.03721
58.65893,0.03399
58.68375,0.03467
58.70857,0.03501
58.73339,0.03213
58.75821,0.03704
58.78304,0.03653
58.80786,0.03738
58.83268,0.03146
58.8575,0.03433
58.88233,0.03551
58.90715,0.03771
58.93197,0.03822
58.95679,0.04482
58.98162,0.03907
59.00644,0.03991
59.03126,0.04059
59.05608,0.03721
59.08091,0.04008
59.10573,0.04279
59.13055,0.04211
59.15537,0.04279
59.1802,0.05124
59.20502,0.05733
59.22984,0.04938
59.25466,0.05243
59.27949,0.04904
59.30431,0.0597
59.32913,0.05835
59.35395,0.05699
59.37877,0.05158
59.4036,0.05953
59.42842,0.05801
59.45324,0.05699
59.47806,0.05632
59.50289,0.05158
59.52771,0.05074
59.55253,0.04431
59.57735,0.03788
59.60218,0.03907
59.627,0.04583
59.65182,0.03213
59.67664,0.03365
59.70147,0.03179
59.72629,0.03146
59.75111,0.02807
59.77593,0.0252
59.80076,0.03247
59.82558,0.03044
59.8504,0.02621
59.87522,0.02283
59.90005,0.02757
59.92487,0.02807
59.94969,0.02435
59.97451,0.02199
59.99933,0.02588
60.02416,0.03027
60.04898,0.02368
60.0738,0.02418
60.09862,0.02401
60.12345,0.01691
60.14827,0.02215
60.17309,0.01826
60.19791,0.01725
60.22274,0.01319
60.24756,0.01302
60.27238,0.01235
60.2972,0.01894
60.32203,0.0181
60.34685,0.0164
60.37167,0.01759
60.39649,0.00744
60.42132,0.00879
60.44614,0.00964
60.47096,0.01065
60.49578,0.01218
60.52061,0.00846
60.54543,0.01167
60.57025,0.01082
60.59507,0.00795
60.61989,0.01319
60.64472,0.01556
60.66954,0.0093
60.69436,0.01235
60.71918,0.01251
60.74401,0.01404
60.76883,0.00896
60.79365,0.01404
60.81847,0.01082
60.8433,0.01082
60.86812,0.01539
60.89294,0.01539
60.91776,0.01454
60.94259,0.01674
60.96741,0.01471
60.99223,0.01201
61.01705,0.0181
61.04188,0.01708
61.0667,0.01826
61.09152,0.01624
61.11634,0.02317
61.14117,0.01674
61.16599,0.01708
61.19081,0.0252
61.21563,0.02351
61.24045,0.02774
61.26528,0.02351
61.2901,0.02334
61.31492,0.02351
61.33974,0.02063
61.36457,0.02199
61.38939,0.02249
61.41421,0.02385
61.43903,0.0186
61.46386,0.0181
61.48868,0.01742
61.5135,0.01235
61.53832,0.0137
61.56315,0.01471
61.58797,0.00795
61.61279,0.01167
61.63761,0.01928
61.66244,0.01387
61.68726,0.01471
61.71208,0.01285
61.7369,0.00998
61.76173,0.01488
61.78655,0.01285
61.81137,0.01336
61.83619,0.01387
61.86101,0.02046
61.88584,0.01894
61.91066,0.01353
61.93548,0.01708
61.9603,0.0181
61.98513,0.01336
62.00995,0.01725
62.03477,0.01624
62.05959,0.02215
62.08442,0.02232
62.10924,0.01488
62.13406,0.01556
62.15888,0.01793
62.18371,0.01336
62.20853,0.01556
62.23335,0.01725
62.25817,0.01488
62.283,0.01336
62.30782,0.01387
62.33264,0.01725
62.35746,0.01404
62.38229,0.01268
62.40711,0.00964
62.43193,0.00998
62.45675,0.01353
62.48157,0.01319
62.5064,0.01522
62.53122,0.01573
62.55604,0.01404
62.58086,0.00744
62.60569,0.02029
62.63051,0.02131
62.65533,0.01945
62.68015,0.01167
62.70498,0.01218
62.7298,0.01438
62.75462,0.01285
62.77944,0.01099
62.80427,0.01573
62.82909,0.01082
62.85391,0.0186
62.87873,0.01471
62.90356,0.01928
62.92838,0.01353
62.9532,0.02046
62.97802,0.01945
63.00285,0.01607
63.02767,0.01843
63.05249,0.01522
63.07731,0.02452
63.10213,0.02131
63.12696,0.01826
63.15178,0.01996
63.1766,0.01674
63.20142,0.02351
63.22625,0.01607
63.25107,0.01674
63.27589,0.01877
63.30071,0.01928
63.32554,0.01793
63.35036,0.02469
63.37518,0.0208
63.4,0.023
63.42483,0.02046
63.44965,0.01979
63.47447,0.01894
63.49929,0.01962
63.52412,0.01387
63.54894,0.01826
63.57376,0.00879
63.59858,0.01251
63.62341,0.01691
63.64823,0.01674
63.67305,0.02249
63.69787,0.01708
63.72269,0.01336
63.74752,0.01201
63.77234,0.01657
63.79716,0.01657
63.82198,0.01015
63.84681,0.01184
63.87163,0.01032
63.89645,0.01539
63.92127,0.01607
63.9461,0.01015
63.97092,0.01065
63.99574,0.01116
64.02056,0.00676
64.04539,0.00795
64.07021,0.01201
64.09503,0.01336
64.11985,0.00304
64.14468,0.0115
64.1695,0.00846
64.19432,0.00829
64.21914,0.01708
64.24397,0.01454
64.26879,0.01387
64.29361,0.01539
64.31843,0.01556
64.34325,0.01505
64.36808,0.01674
64.3929,0.01522
64.41772,0.01962
64.44254,0.02283
64.46737,0.02283
64.49219,0.02029
64.51701,0.02621
64.54183,0.02486
64.56666,0.02097
64.59148,0.02689
64.6163,0.02909
64.64112,0.02892
64.66595,0.03535
64.69077,0.03839
64.71559,0.03349
64.74041,0.03467
64.76524,0.04583
64.79006,0.03585
64.81488,0.04059
64.8397,0.03924
64.86453,0.04769
64.88935,0.04211
64.91417,0.04313
64.93899,0.03044
64.96381,0.03687
64.98864,0.04177
65.01346,0.0367
65.03828,0.03365
65.0631,0.03196
65.08793,0.02604
65.11275,0.02774
65.13757,0.02351
65.16239,0.02537
65.18722,0.02097
65.21204,0.0186
65.23686,0.01556
65.26168,0.023
65.28651,0.01404
65.31133,0.01218
65.33615,0.01657
65.36097,0.01505
65.3858,0.01336
65.41062,0.01353
65.43544,0.01184
65.46026,0.00829
65.48509,0.01522
65.50991,0.00879
65.53473,0.00998
65.55955,0.00778
65.58437,0.00507
65.6092,0.00592
65.63402,0.0066
65.65884,0.0066
65.68366,0.00643
65.70849,0.00592
65.73331,0.00338
65.75813,0.00507
65.78295,0.00609
65.80778,0.00947
65.8326,0.00609
65.85742,0.00541
65.88224,0.00879
65.90707,0.00795
65.93189,0.0093
65.95671,0.01015
65.98153,0.01032
66.00636,0.01015
66.03118,0.01116
66.056,0.01218
66.08082,0.00406
66.10565,0.00372
66.13047,0.0093
66.15529,0.0093
66.18011,0.00795
66.20493,0.01032
66.22976,0.01218
66.25458,0.01336
66.2794,0.01116
66.30422,0.00964
66.32905,0.01894
66.35387,0.01793
66.37869,0.0208
66.40351,0.02875
66.42834,0.02503
66.45316,0.02435
66.47798,0.02571
66.5028,0.02486
66.52763,0.02841
66.55245,0.02655
66.57727,0.02503
66.60209,0.02554
66.62692,0.03027
66.65174,0.02976
66.67656,0.02672
66.70138,0.02774
66.72621,0.0394
66.75103,0.02774
66.77585,0.02943
66.80067,0.03129
66.82549,0.02385
66.85032,0.02232
66.87514,0.02706
66.89996,0.02063
66.92478,0.02452
66.94961,0.02604
66.97443,0.023
66.99925,0.01674
67.02407,0.01996
67.0489,0.02418
67.07372,0.01742
67.09854,0.01877
67.12336,0.02063
67.14819,0.0208
67.17301,0.02063
67.19783,0.01607
67.22265,0.01759
67.24748,0.0159
67.2723,0.01488
67.29712,0.00998
67.32194,0.01708
67.34677,0.02013
67.37159,0.01624
67.39641,0.01826
67.42123,0.01049
67.44605,0.01793
67.47088,0.01336
67.4957,0.02063
67.52052,0.01945
67.54534,0.01674
67.57017,0.00981
67.59499,0.01065
67.61981,0.0159
67.64463,0.00643
67.66946,0.0093
67.69428,0.0159
67.7191,0.00693
67.74392,0.01116
67.76875,0.00271
67.79357,0.0115
67.81839,0.01438
67.84321,0.0071
67.86804,0.00727
67.89286,0.0022
67.91768,0.00896
67.9425,0.00896
67.96733,0.00507
67.99215,0.0071
68.01697,0.00795
68.04179,0.00355
68.06661,0.0093
68.09144,0.00896
68.11626,0.01099
68.14108,0.00727
68.1659,0.0093
68.19073,0.00863
68.21555,0.00812
68.24037,0.01065
68.26519,0.0022
68.29002,0.00575
68.31484,0.00863
68.33966,0.01201
68.36448,0.00998
68.38931,0.00879
68.41413,0.0071
68.43895,0.00406
68.46377,0.01201
68.4886,0.01082
68.51342,0.00676
68.53824,0.01251
68.56306,0.00321
68.58789,0.01235
68.61271,0.00389
68.63753,0.01082
68.66235,0.01404
68.68717,0.01624
68.712,0.0044
68.73682,0.01032
68.76164,0.00152
68.78646,0.00592
68.81129,0.0044
68.83611,0.00626
68.86093,0.00592
68.88575,0.00643
68.91058,0.00981
68.9354,0.00863
68.96022,0.00896
68.98504,0.00304
69.00987,0.0049
69.03469,0.00693
69.05951,0.00457
69.08433,0.00406
69.10916,0.00727
69.13398,1.69E-04
69.1588,0.00406
69.18362,0.0044
69.20845,0.00355
69.23327,0.00101
69.25809,0.00254
69.28291,0.00203
69.30773,0.0049
69.33256,0.00321
69.35738,0.00998
69.3822,0.01099
69.40702,0.00744
69.43185,6.76E-04
69.45667,0.00372
69.48149,0.00795
69.50631,0.00727
69.53114,0.00474
69.55596,0.00457
69.58078,0.00237
69.6056,0.00744
69.63043,0.00474
69.65525,0.00558
69.68007,0.00863
69.70489,0.00304
69.72972,0
69.75454,0.0022
69.77936,0.01285
69.80418,0.00744
69.82901,8.46E-04
69.85383,0.00558
69.87865,0.0044
69.90347,0.00423
69.92829,0.00237
69.95312,0.00372
69.97794,0.00913
70.00276,0.00575
