2(theta dregrees),Intensity  (a.u)
5,0.00102
5.01,9.49E-04
5.02,9.71E-04
5.03,0.00113
5.04,0.00117
5.05,0.00114
5.06,8.55E-04
5.07,8.48E-04
5.08,8.23E-04
5.09,7.87E-04
5.1,6.08E-04
5.11,4.08E-04
5.12,8.50E-04
5.13,9.76E-04
5.14,5.34E-04
5.15,1.76E-04
5.16,1.15E-04
5.17,9.17E-04
5.18,0.00126
5.19,0.00119
5.2,8.25E-04
5.21,6.32E-04
5.22,7.33E-04
5.23,7.27E-04
5.24,8.39E-04
5.25,0.00118
5.26,0.00148
5.27,7.73E-04
5.28,3.33E-04
5.29,8.91E-04
5.3,0.00154
5.31,0.00157
5.32,0.00131
5.33,0.00118
5.34,9.64E-04
5.35,5.76E-04
5.36,6.59E-04
5.37,9.56E-04
5.38,0.00126
5.39,0.00119
5.4,0.00122
5.41,8.61E-04
5.42,9.48E-04
5.43,0.00161
5.44,0.0015
5.45,0.00126
5.46,9.82E-04
5.47,7.55E-04
5.48,0.00119
5.49,0.00192
5.5,0.00196
5.51,0.00174
5.52,0.00117
5.53,0.0015
5.54,0.00171
5.55,0.00166
5.56,0.00165
5.57,0.00151
5.58,0.00173
5.59,0.0016
5.6,0.00166
5.61,0.00207
5.62,0.00181
5.63,0.00202
5.64,0.00232
5.65,0.00202
5.66,0.00233
5.67,0.00229
5.68,0.00225
5.69,0.00213
5.7,0.00245
5.71,0.00241
5.72,0.00155
5.73,0.0021
5.74,0.00287
5.75,0.00252
5.76,0.00221
5.77,0.00339
5.78,0.00388
5.79,0.00323
5.8,0.00311
5.81,0.00344
5.82,0.00322
5.83,0.00308
5.84,0.00296
5.85,0.00311
5.86,0.00362
5.87,0.00403
5.88,0.00417
5.89,0.00427
5.9,0.00448
5.91,0.00435
5.92,0.00511
5.93,0.00522
5.94,0.00491
5.95,0.00518
5.96,0.00562
5.97,0.00541
5.98,0.00531
5.99,0.00505
6,0.00505
6.01,0.00505
6.02,0.00508
6.03,0.00452
6.04,0.00464
6.05,0.00521
6.06,0.00577
6.07,0.00577
6.08,0.00532
6.09,0.00563
6.1,0.00543
6.11,0.00507
6.12,0.00564
6.13,0.00548
6.14,0.0059
6.15,0.0066
6.16,0.00651
6.17,0.00669
6.18,0.00788
6.19,0.0077
6.2,0.0078
6.21,0.00788
6.22,0.00819
6.23,0.00837
6.24,0.00851
6.25,0.00888
6.26,0.00886
6.27,0.00821
6.28,0.00844
6.29,0.00929
6.3,0.01026
6.31,0.01088
6.32,0.01077
6.33,0.01172
6.34,0.01256
6.35,0.01224
6.36,0.01223
6.37,0.0133
6.38,0.0144
6.39,0.01599
6.4,0.01687
6.41,0.01656
6.42,0.01733
6.43,0.02036
6.44,0.02211
6.45,0.02342
6.46,0.02522
6.47,0.02702
6.48,0.02994
6.49,0.03372
6.5,0.037
6.51,0.04061
6.52,0.04354
6.53,0.04717
6.54,0.05274
6.55,0.05972
6.56,0.06616
6.57,0.07293
6.58,0.07868
6.59,0.08973
6.6,0.10326
6.61,0.11471
6.62,0.12722
6.63,0.14457
6.64,0.16519
6.65,0.1845
6.66,0.20619
6.67,0.23097
6.68,0.25912
6.69,0.28886
6.7,0.32211
6.71,0.35801
6.72,0.39459
6.73,0.43731
6.74,0.48685
6.75,0.53707
6.76,0.59058
6.77,0.64353
6.78,0.69307
6.79,0.74941
6.8,0.80731
6.81,0.85743
6.82,0.89997
6.83,0.94474
6.84,0.98063
6.85,1
6.86,0.99996
6.87,0.98361
6.88,0.94675
6.89,0.89006
6.9,0.81772
6.91,0.73416
6.92,0.64633
6.93,0.55978
6.94,0.47673
6.95,0.40272
6.96,0.33786
6.97,0.27979
6.98,0.2301
6.99,0.19062
7,0.16123
7.01,0.13724
7.02,0.11752
7.03,0.10172
7.04,0.08929
7.05,0.08052
7.06,0.07483
7.07,0.06869
7.08,0.06403
7.09,0.06138
7.1,0.05786
7.11,0.05373
7.12,0.04977
7.13,0.04646
7.14,0.04482
7.15,0.04212
7.16,0.03912
7.17,0.03834
7.18,0.03736
7.19,0.03578
7.2,0.03342
7.21,0.03224
7.22,0.0305
7.23,0.02858
7.24,0.02767
7.25,0.02676
7.26,0.02554
7.27,0.02464
7.28,0.02355
7.29,0.02246
7.3,0.02246
7.31,0.02234
7.32,0.02084
7.33,0.02049
7.34,0.0206
7.35,0.01996
7.36,0.01887
7.37,0.01844
7.38,0.01943
7.39,0.01904
7.4,0.01811
7.41,0.01753
7.42,0.01752
7.43,0.0173
7.44,0.01661
7.45,0.01574
7.46,0.01586
7.47,0.01596
7.48,0.01675
7.49,0.01643
7.5,0.01565
7.51,0.0158
7.52,0.01553
7.53,0.0154
7.54,0.01542
7.55,0.01509
7.56,0.0151
7.57,0.01468
7.58,0.01404
7.59,0.01403
7.6,0.01372
7.61,0.01417
7.62,0.01379
7.63,0.0135
7.64,0.01352
7.65,0.01341
7.66,0.01336
7.67,0.01265
7.68,0.01259
7.69,0.01315
7.7,0.01289
7.71,0.01278
7.72,0.01311
7.73,0.01278
7.74,0.01248
7.75,0.01241
7.76,0.01284
7.77,0.0128
7.78,0.01282
7.79,0.01281
7.8,0.01251
7.81,0.0126
7.82,0.01232
7.83,0.01271
7.84,0.01316
7.85,0.0129
7.86,0.01235
7.87,0.01159
7.88,0.01198
7.89,0.01302
7.9,0.01267
7.91,0.01239
7.92,0.0125
7.93,0.01144
7.94,0.01122
7.95,0.01178
7.96,0.01206
7.97,0.0119
7.98,0.01181
7.99,0.0119
8,0.01229
8.01,0.01191
8.02,0.01212
8.03,0.01223
8.04,0.01228
8.05,0.01274
8.06,0.01233
8.07,0.01164
8.08,0.01154
8.09,0.01185
8.1,0.01244
8.11,0.01255
8.12,0.01275
8.13,0.0124
8.14,0.0118
8.15,0.01184
8.16,0.01217
8.17,0.01158
8.18,0.01118
8.19,0.01165
8.2,0.01199
8.21,0.01165
8.22,0.01233
8.23,0.01274
8.24,0.01209
8.25,0.0114
8.26,0.01166
8.27,0.01232
8.28,0.01275
8.29,0.01198
8.3,0.01205
8.31,0.01305
8.32,0.0135
8.33,0.01312
8.34,0.01296
8.35,0.01276
8.36,0.01282
8.37,0.01297
8.38,0.01271
8.39,0.01291
8.4,0.01396
8.41,0.01384
8.42,0.01359
8.43,0.01392
8.44,0.01317
8.45,0.0131
8.46,0.01256
8.47,0.01258
8.48,0.01347
8.49,0.01455
8.5,0.01445
8.51,0.01411
8.52,0.01446
8.53,0.01514
8.54,0.01501
8.55,0.01516
8.56,0.01607
8.57,0.01718
8.58,0.01748
8.59,0.01748
8.6,0.0178
8.61,0.01802
8.62,0.01851
8.63,0.01933
8.64,0.01969
8.65,0.02026
8.66,0.02067
8.67,0.02118
8.68,0.02252
8.69,0.02406
8.7,0.02573
8.71,0.0272
8.72,0.02784
8.73,0.02801
8.74,0.0286
8.75,0.03031
8.76,0.03267
8.77,0.03439
8.78,0.03618
8.79,0.03835
8.8,0.03878
8.81,0.03881
8.82,0.04013
8.83,0.04075
8.84,0.04107
8.85,0.04186
8.86,0.04263
8.87,0.04093
8.88,0.0395
8.89,0.03962
8.9,0.03869
8.91,3.60E-02
8.92,3.41E-02
8.93,3.10E-02
8.94,2.80E-02
8.95,2.73E-02
8.96,2.71E-02
8.97,2.66E-02
8.98,2.54E-02
8.99,2.30E-02
9,0.02083
9.01,0.01944
9.02,0.01885
9.03,1.89E-02
9.04,1.85E-02
9.05,1.81E-02
9.06,1.80E-02
9.07,1.78E-02
9.08,1.72E-02
9.09,1.75E-02
9.1,1.67E-02
9.11,1.64E-02
9.12,1.70E-02
9.13,0.01715
9.14,0.01767
9.15,0.01775
9.16,0.0176
9.17,0.01738
9.18,0.01763
9.19,0.01844
9.2,1.89E-02
9.21,1.89E-02
9.22,1.84E-02
9.23,0.01855
9.24,0.0196
9.25,0.02055
9.26,0.02095
9.27,0.02171
9.28,0.02221
9.29,2.29E-02
9.3,0.02342
9.31,2.45E-02
9.32,2.50E-02
9.33,2.61E-02
9.34,2.83E-02
9.35,2.91E-02
9.36,0.03053
9.37,3.24E-02
9.38,3.46E-02
9.39,3.80E-02
9.4,4.20E-02
9.41,4.42E-02
9.42,4.69E-02
9.43,5.12E-02
9.44,0.05449
9.45,0.05921
9.46,0.06514
9.47,0.07093
9.48,0.07676
9.49,8.40E-02
9.5,9.38E-02
9.51,1.02E-01
9.52,0.10983
9.53,0.12021
9.54,0.13118
9.55,0.14287
9.56,0.15662
9.57,0.17037
9.58,0.18412
9.59,0.19808
9.6,0.21615
9.61,0.23418
9.62,0.24484
9.63,0.25666
9.64,0.2744
9.65,2.89E-01
9.66,2.99E-01
9.67,0.30804
9.68,0.31404
9.69,0.31419
9.7,0.30981
9.71,0.30174
9.72,0.29419
9.73,0.27975
9.74,0.25769
9.75,0.23375
9.76,0.2123
9.77,1.92E-01
9.78,1.69E-01
9.79,1.47E-01
9.8,1.28E-01
9.81,1.12E-01
9.82,0.0963
9.83,0.0828
9.84,0.0729
9.85,0.06489
9.86,0.05842
9.87,0.05328
9.88,0.04788
9.89,0.0433
9.9,0.03985
9.91,3.69E-02
9.92,3.37E-02
9.93,3.17E-02
9.94,0.03026
9.95,0.02908
9.96,0.02768
9.97,0.02626
9.98,0.02426
9.99,0.02185
10,0.02095
10.01,0.01982
10.02,0.01903
10.03,0.01888
10.04,0.01796
10.05,0.01683
10.06,0.01608
10.07,0.01552
10.08,0.01556
10.09,0.01562
10.1,0.01468
10.11,0.01405
10.12,0.01383
10.13,0.01252
10.14,0.01121
10.15,0.01102
10.16,0.01157
10.17,0.01173
10.18,0.01185
10.19,0.01154
10.2,0.01117
10.21,0.01114
10.22,0.01059
10.23,0.01
10.24,0.00992
10.25,0.01031
10.26,0.01045
10.27,0.00997
10.28,0.00927
10.29,0.00931
10.3,0.00993
10.31,0.01005
10.32,0.00956
10.33,0.0091
10.34,0.00833
10.35,0.00772
10.36,0.00826
10.37,0.00854
10.38,0.00823
10.39,0.00779
10.4,0.00775
10.41,0.00784
10.42,0.00745
10.43,0.00734
10.44,0.00766
10.45,0.0077
10.46,0.00764
10.47,0.007
10.48,0.00668
10.49,0.00721
10.5,0.00698
10.51,0.00666
10.52,0.00718
10.53,0.00727
10.54,0.00647
10.55,0.00635
10.56,0.00625
10.57,0.00613
10.58,0.00636
10.59,0.00628
10.6,0.006
10.61,0.006
10.62,0.00627
10.63,0.0062
10.64,0.00615
10.65,0.00612
10.66,0.00596
10.67,0.00574
10.68,0.00568
10.69,0.00569
10.7,0.00547
10.71,0.00546
10.72,0.00568
10.73,0.00576
10.74,0.00577
10.75,0.00591
10.76,0.00574
10.77,0.00534
10.78,0.00486
10.79,0.00442
10.8,0.0046
10.81,0.00481
10.82,0.00471
10.83,0.00491
10.84,0.00527
10.85,0.00518
10.86,0.00513
10.87,0.00497
10.88,0.00449
10.89,0.00452
10.9,0.00484
10.91,0.00511
10.92,0.00513
10.93,0.00495
10.94,0.00522
10.95,0.00562
10.96,0.00504
10.97,0.00485
10.98,0.00507
10.99,0.00459
11,0.00436
11.01,0.00476
11.02,0.00498
11.03,0.00472
11.04,0.00478
11.05,0.00498
11.06,0.00481
11.07,0.00499
11.08,0.00547
11.09,0.00539
11.1,0.00538
11.11,0.00571
11.12,0.00614
11.13,0.00646
11.14,0.00659
11.15,0.0069
11.16,0.00707
11.17,0.00718
11.18,0.00774
11.19,0.00815
11.2,0.0087
11.21,0.00932
11.22,0.00957
11.23,0.00949
11.24,0.00997
11.25,0.01036
11.26,0.01039
11.27,0.01148
11.28,0.01177
11.29,0.01186
11.3,0.01325
11.31,0.0141
11.32,0.01433
11.33,0.01509
11.34,0.01542
11.35,0.0154
11.36,0.0153
11.37,0.01539
11.38,0.01537
11.39,0.0147
11.4,0.01462
11.41,0.01437
11.42,0.01357
11.43,0.01283
11.44,0.01159
11.45,0.01038
11.46,0.00966
11.47,0.00941
11.48,0.00881
11.49,0.00723
11.5,0.00649
11.51,0.00662
11.52,0.00605
11.53,0.00567
11.54,0.00542
11.55,0.00502
11.56,0.00432
11.57,0.00416
11.58,0.00449
11.59,0.00456
11.6,0.00449
11.61,0.00404
11.62,0.0038
11.63,0.00406
11.64,0.00431
11.65,0.00396
11.66,0.00332
11.67,0.00314
11.68,0.00351
11.69,0.00404
11.7,0.00395
11.71,0.00353
11.72,0.00341
11.73,0.00369
11.74,0.00376
11.75,0.00407
11.76,0.00448
11.77,0.00471
11.78,0.00483
11.79,0.00469
11.8,0.00413
11.81,0.00355
11.82,0.0033
11.83,0.00336
11.84,0.00262
11.85,0.00248
11.86,0.00326
11.87,0.00353
11.88,0.00321
11.89,0.00329
11.9,0.00371
11.91,0.00377
11.92,0.00331
11.93,0.00305
11.94,0.00342
11.95,0.00339
11.96,0.00304
11.97,0.00295
11.98,0.00308
11.99,0.0031
12,0.00257
12.01,0.0025
12.02,0.00273
12.03,0.00224
12.04,0.00182
12.05,0.00217
12.06,0.00269
12.07,0.00242
12.08,0.0023
12.09,0.00258
12.1,0.00233
12.11,0.00212
12.12,0.00202
12.13,0.00233
12.14,0.00217
12.15,0.00201
12.16,0.00212
12.17,0.00213
12.18,0.00242
12.19,0.00234
12.2,0.00206
12.21,0.00231
12.22,0.00272
12.23,0.00245
12.24,0.00213
12.25,0.00234
12.26,0.00234
12.27,0.00198
12.28,0.00194
12.29,0.00225
12.3,0.00249
12.31,0.00234
12.32,0.00247
12.33,0.00275
12.34,0.00269
12.35,0.00245
12.36,0.00213
12.37,0.00204
12.38,0.00217
12.39,0.00234
12.4,0.00234
12.41,0.00222
12.42,0.0021
12.43,0.00189
12.44,0.00227
12.45,0.00249
12.46,0.00213
12.47,0.00229
12.48,0.00227
12.49,0.00179
12.5,0.00203
12.51,0.00221
12.52,0.0025
12.53,0.00232
12.54,0.00221
12.55,0.00229
12.56,0.0019
12.57,0.00136
12.58,0.00165
12.59,0.00222
12.6,0.00239
12.61,0.00212
12.62,0.00206
12.63,0.00221
12.64,0.00205
12.65,0.00192
12.66,0.00187
12.67,0.00197
12.68,0.0022
12.69,0.00224
12.7,0.0025
12.71,0.00222
12.72,0.00197
12.73,0.00215
12.74,0.00205
12.75,0.00198
12.76,0.00211
12.77,0.0022
12.78,0.00267
12.79,0.00264
12.8,0.00285
12.81,0.00251
12.82,0.00247
12.83,0.00253
12.84,0.00262
12.85,0.00238
12.86,0.0019
12.87,0.00204
12.88,0.00216
12.89,0.00216
12.9,0.00247
12.91,0.00218
12.92,0.002
12.93,0.00204
12.94,0.00248
12.95,0.00263
12.96,0.00275
12.97,0.00222
12.98,0.00205
12.99,0.0023
13,0.00265
13.01,0.00286
13.02,0.00299
13.03,0.0033
13.04,0.00392
13.05,0.00364
13.06,0.00311
13.07,0.00328
13.08,0.00391
13.09,0.00366
13.1,0.00332
13.11,0.00407
13.12,0.00448
13.13,0.00491
13.14,0.00506
13.15,0.00576
13.16,0.00518
13.17,0.00466
13.18,0.00516
13.19,0.00593
13.2,0.00605
13.21,0.00679
13.22,0.00709
13.23,0.00767
13.24,0.00797
13.25,0.00758
13.26,0.00832
13.27,0.00977
13.28,0.01085
13.29,0.01143
13.3,0.01171
13.31,0.01209
13.32,0.01247
13.33,0.01346
13.34,0.0145
13.35,0.01534
13.36,0.01632
13.37,0.01822
13.38,0.01917
13.39,0.02038
13.4,0.02212
13.41,0.02403
13.42,0.02697
13.43,0.02945
13.44,0.03259
13.45,0.03505
13.46,0.03766
13.47,0.04309
13.48,0.04853
13.49,0.05378
13.5,0.05953
13.51,0.06463
13.52,0.0686
13.53,0.07473
13.54,0.08301
13.55,0.09101
13.56,0.10078
13.57,0.10801
13.58,0.11816
13.59,0.1282
13.6,0.13868
13.61,0.15081
13.62,0.16299
13.63,0.17473
13.64,0.18704
13.65,0.19946
13.66,0.20914
13.67,0.22095
13.68,0.23122
13.69,0.23736
13.7,0.24376
13.71,0.24842
13.72,0.24929
13.73,0.24947
13.74,0.24588
13.75,0.23619
13.76,0.22323
13.77,0.2079
13.78,0.18674
13.79,0.16718
13.8,0.14718
13.81,0.12725
13.82,0.10877
13.83,0.09164
13.84,0.07642
13.85,0.06416
13.86,0.05353
13.87,0.04513
13.88,0.03812
13.89,0.03383
13.9,0.0312
13.91,0.02779
13.92,0.0257
13.93,0.02339
13.94,0.02132
13.95,0.02029
13.96,0.01928
13.97,0.01739
13.98,0.01684
13.99,0.01679
14,0.01686
14.01,0.01647
14.02,0.01534
14.03,0.01459
14.04,0.01352
14.05,0.01264
14.06,0.01256
14.07,0.01263
14.08,0.0122
14.09,0.01172
14.1,0.0114
14.11,0.01159
14.12,0.01098
14.13,0.0102
14.14,0.00994
14.15,0.00959
14.16,0.00965
14.17,0.00992
14.18,0.01035
14.19,0.00966
14.2,0.00901
14.21,0.00863
14.22,0.00897
14.23,0.00927
14.24,0.0092
14.25,0.00918
14.26,0.00912
14.27,0.00871
14.28,0.00798
14.29,0.00778
14.3,0.00784
14.31,0.00813
14.32,0.00816
14.33,0.00818
14.34,0.00778
14.35,0.0077
14.36,0.00743
14.37,0.00718
14.38,0.00719
14.39,0.00729
14.4,0.00666
14.41,0.00696
14.42,0.0072
14.43,0.00719
14.44,0.00651
14.45,0.00681
14.46,0.00751
14.47,0.00717
14.48,0.00718
14.49,0.00726
14.5,0.00704
14.51,0.00722
14.52,0.00725
14.53,0.00803
14.54,0.00758
14.55,0.00781
14.56,0.00864
14.57,0.00867
14.58,0.00918
14.59,0.00916
14.6,0.00923
14.61,0.00994
14.62,0.01
14.63,0.00984
14.64,0.01051
14.65,0.01102
14.66,0.01204
14.67,0.01216
14.68,0.01198
14.69,0.01164
14.7,0.01226
14.71,0.01306
14.72,0.0143
14.73,0.01606
14.74,0.01679
14.75,0.01744
14.76,0.01829
14.77,0.02022
14.78,0.02115
14.79,0.02239
14.8,0.02315
14.81,0.02417
14.82,0.0254
14.83,0.02602
14.84,0.02817
14.85,0.03015
14.86,0.02986
14.87,0.03273
14.88,0.03467
14.89,0.03479
14.9,0.03616
14.91,0.03891
14.92,0.04032
14.93,0.04076
14.94,0.04096
14.95,0.0427
14.96,0.04427
14.97,0.04478
14.98,0.04337
14.99,0.04288
15,0.04258
15.01,0.03989
15.02,0.04036
15.03,0.04108
15.04,0.03935
15.05,0.03981
15.06,0.03991
15.07,0.04049
15.08,0.04224
15.09,0.04196
15.1,0.04334
15.11,0.04543
15.12,0.04847
15.13,0.05112
15.14,0.05424
15.15,0.05892
15.16,0.06402
15.17,0.06785
15.18,0.06906
15.19,0.07504
15.2,0.08134
15.21,0.08481
15.22,0.08968
15.23,0.09592
15.24,0.10258
15.25,0.10717
15.26,0.1127
15.27,0.11871
15.28,0.12252
15.29,0.12919
15.3,0.13597
15.31,0.1386
15.32,0.14216
15.33,0.14114
15.34,0.14345
15.35,0.14071
15.36,0.13913
15.37,0.13605
15.38,0.12937
15.39,0.12021
15.4,0.11297
15.41,0.10385
15.42,0.09272
15.43,0.08397
15.44,0.07471
15.45,0.06641
15.46,0.0573
15.47,0.04977
15.48,0.04543
15.49,0.03825
15.5,0.0348
15.51,0.03163
15.52,0.02955
15.53,0.02687
15.54,0.02519
15.55,0.02299
15.56,0.02132
15.57,0.02073
15.58,0.01984
15.59,0.0188
15.6,0.01881
15.61,0.01877
15.62,0.01847
15.63,0.01882
15.64,0.01844
15.65,0.01758
15.66,0.01713
15.67,0.01707
15.68,0.01663
15.69,0.01651
15.7,0.01725
15.71,0.0167
15.72,0.01666
15.73,0.0163
15.74,0.0156
15.75,0.01455
15.76,0.0143
15.77,0.01472
15.78,0.0141
15.79,0.01321
15.8,0.01301
15.81,0.0129
15.82,0.01206
15.83,0.01141
15.84,0.01117
15.85,0.01173
15.86,0.01076
15.87,0.0102
15.88,0.01085
15.89,0.0101
15.9,0.00909
15.91,0.00944
15.92,0.00846
15.93,0.00725
15.94,0.00765
15.95,0.00722
15.96,0.0075
15.97,0.00792
15.98,0.00752
15.99,0.00719
16,0.00727
16.01,0.00747
16.02,0.00736
16.03,0.00707
16.04,0.00654
16.05,0.0067
16.06,0.00672
16.07,0.00642
16.08,0.00652
16.09,0.00678
16.1,0.0073
16.11,0.00784
16.12,0.00771
16.13,0.00694
16.14,0.0065
16.15,0.00665
16.16,0.00787
16.17,0.00772
16.18,0.00663
16.19,0.00595
16.2,0.00603
16.21,0.00658
16.22,0.00626
16.23,0.00559
16.24,0.00577
16.25,0.00613
16.26,0.00644
16.27,0.00551
16.28,0.00547
16.29,0.00604
16.3,0.00668
16.31,0.00617
16.32,0.00635
16.33,0.00598
16.34,0.006
16.35,0.00633
16.36,0.00603
16.37,0.00596
16.38,0.00615
16.39,0.00617
16.4,0.00598
16.41,0.00574
16.42,0.00609
16.43,0.00647
16.44,0.00617
16.45,0.00613
16.46,0.00629
16.47,0.00665
16.48,0.00673
16.49,0.006
16.5,0.00643
16.51,0.00727
16.52,0.00731
16.53,0.00739
16.54,0.00695
16.55,0.0074
16.56,0.00703
16.57,0.00725
16.58,0.00694
16.59,0.00769
16.6,0.00802
16.61,0.00839
16.62,0.00775
16.63,0.00748
16.64,0.00819
16.65,0.00928
16.66,0.00966
16.67,0.00946
16.68,0.00934
16.69,0.00922
16.7,0.00968
16.71,0.00993
16.72,0.01011
16.73,0.01106
16.74,0.01049
16.75,0.01019
16.76,0.01186
16.77,0.01121
16.78,0.01074
16.79,0.01096
16.8,0.01099
16.81,0.01103
16.82,0.01144
16.83,0.01212
16.84,0.01241
16.85,0.01156
16.86,0.01127
16.87,0.01092
16.88,0.01166
16.89,0.0108
16.9,0.00992
16.91,0.00972
16.92,0.0095
16.93,0.00855
16.94,0.00873
16.95,0.00818
16.96,0.00744
16.97,0.00672
16.98,0.00826
16.99,0.00845
17,0.00771
17.01,0.00796
17.02,0.00766
17.03,0.00604
17.04,0.00751
17.05,0.0077
17.06,0.00641
17.07,0.00667
17.08,0.00696
17.09,0.00713
17.1,0.00724
17.11,0.00681
17.12,0.00687
17.13,0.00742
17.14,0.0069
17.15,0.0073
17.16,0.00627
17.17,0.00684
17.18,0.00721
17.19,0.00659
17.2,0.00627
17.21,0.00709
17.22,0.00798
17.23,0.00748
17.24,0.00756
17.25,0.00728
17.26,0.00753
17.27,0.00736
17.28,0.00832
17.29,0.00809
17.3,0.008
17.31,0.00828
17.32,0.008
17.33,0.00836
17.34,0.00899
17.35,0.00762
17.36,0.00779
17.37,0.00768
17.38,0.00846
17.39,0.00809
17.4,0.00895
17.41,0.01034
17.42,0.01064
17.43,0.01087
17.44,0.01032
17.45,0.01075
17.46,0.01112
17.47,0.01147
17.48,0.01159
17.49,0.01309
17.5,0.0136
17.51,0.01331
17.52,0.01288
17.53,0.01425
17.54,0.015
17.55,0.01409
17.56,0.01487
17.57,0.01673
17.58,0.01854
17.59,0.01915
17.6,0.02014
17.61,0.02076
17.62,0.02079
17.63,0.02183
17.64,0.02415
17.65,0.0248
17.66,0.02567
17.67,0.02621
17.68,0.02782
17.69,0.02957
17.7,0.0297
17.71,0.03084
17.72,0.03248
17.73,0.03353
17.74,0.03529
17.75,0.03562
17.76,0.0365
17.77,0.03748
17.78,0.03692
17.79,0.03881
17.8,0.03756
17.81,0.03786
17.82,0.03767
17.83,0.03902
17.84,0.03897
17.85,0.0372
17.86,0.03705
17.87,0.0362
17.88,0.03509
17.89,0.0332
17.9,0.03175
17.91,0.02957
17.92,0.02737
17.93,0.0246
17.94,0.02308
17.95,0.02209
17.96,0.02087
17.97,0.01984
17.98,0.01716
17.99,0.01617
18,0.0152
18.01,0.01443
18.02,0.01314
18.03,0.01241
18.04,0.0119
18.05,0.0111
18.06,0.01144
18.07,0.0114
18.08,0.01067
18.09,0.01007
18.1,0.00952
18.11,0.00959
18.12,0.00984
18.13,0.00982
18.14,0.00937
18.15,0.00958
18.16,0.00963
18.17,0.00982
18.18,0.0094
18.19,0.00848
18.2,0.00901
18.21,0.00881
18.22,0.00867
18.23,0.00894
18.24,0.00785
18.25,0.00758
18.26,0.00837
18.27,0.00899
18.28,0.00909
18.29,0.00871
18.3,0.00813
18.31,0.00815
18.32,0.00779
18.33,0.00753
18.34,0.00733
18.35,0.00665
18.36,0.00675
18.37,0.00779
18.38,0.00804
18.39,0.00763
18.4,0.00709
18.41,0.00709
18.42,0.00673
18.43,0.00824
18.44,0.00784
18.45,0.00759
18.46,0.00721
18.47,0.00708
18.48,0.00759
18.49,0.00681
18.5,0.00667
18.51,0.00704
18.52,0.00703
18.53,0.00701
18.54,0.00723
18.55,0.00762
18.56,0.00731
18.57,0.00761
18.58,0.00714
18.59,0.00677
18.6,0.00699
18.61,0.0066
18.62,0.00694
18.63,0.00733
18.64,0.00712
18.65,0.00695
18.66,0.00746
18.67,0.0071
18.68,0.00704
18.69,0.00748
18.7,0.00768
18.71,0.00725
18.72,0.0074
18.73,0.00795
18.74,0.00774
18.75,0.00799
18.76,0.00815
18.77,0.00812
18.78,0.00801
18.79,0.00778
18.8,0.00743
18.81,0.00755
18.82,0.00821
18.83,0.00862
18.84,0.00864
18.85,0.00877
18.86,0.00904
18.87,0.0077
18.88,0.00812
18.89,0.00809
18.9,0.00777
18.91,0.00843
18.92,0.0083
18.93,0.00806
18.94,0.00816
18.95,0.00824
18.96,0.00863
18.97,0.00869
18.98,0.00894
18.99,0.00854
19,0.0081
19.01,0.00814
19.02,0.00791
19.03,0.00849
19.04,0.00905
19.05,0.00993
19.06,0.01013
19.07,0.0101
19.08,0.00989
19.09,0.01123
19.1,0.01091
19.11,0.0108
19.12,0.01134
19.13,0.01116
19.14,0.0121
19.15,0.01244
19.16,0.01294
19.17,0.01336
19.18,0.01281
19.19,0.01322
19.2,0.01406
19.21,0.01461
19.22,0.01532
19.23,0.01547
19.24,0.01618
19.25,0.01719
19.26,0.0178
19.27,0.01827
19.28,0.01844
19.29,0.01953
19.3,0.01944
19.31,0.01941
19.32,0.02046
19.33,0.02116
19.34,0.02179
19.35,0.02214
19.36,0.02291
19.37,0.02418
19.38,0.02436
19.39,0.02538
19.4,0.02561
19.41,0.02562
19.42,0.02594
19.43,0.0253
19.44,0.02508
19.45,0.02539
19.46,0.02478
19.47,0.02443
19.48,0.02364
19.49,0.02173
19.5,0.02052
19.51,0.0194
19.52,0.01856
19.53,0.01848
19.54,0.01828
19.55,0.01766
19.56,0.01669
19.57,0.01571
19.58,0.0152
19.59,0.01394
19.6,0.01264
19.61,0.01234
19.62,0.01199
19.63,0.0116
19.64,0.01138
19.65,0.01087
19.66,0.01054
19.67,0.01028
19.68,0.01101
19.69,0.01146
19.7,0.01072
19.71,0.01081
19.72,0.01173
19.73,0.01184
19.74,0.01138
19.75,0.01151
19.76,0.01059
19.77,0.01056
19.78,0.0111
19.79,0.01018
19.8,0.01
19.81,0.01076
19.82,0.01108
19.83,0.01135
19.84,0.01156
19.85,0.01111
19.86,0.01172
19.87,0.01265
19.88,0.01249
19.89,0.01301
19.9,0.01344
19.91,0.01352
19.92,0.01385
19.93,0.01409
19.94,0.01442
19.95,0.01574
19.96,0.01651
19.97,0.01693
19.98,0.01653
19.99,0.01696
20,0.01858
20.01,0.02051
20.02,0.02127
20.03,0.02118
20.04,0.02159
20.05,0.02265
20.06,0.02419
20.07,0.02428
20.08,0.02479
20.09,0.02761
20.1,0.02984
20.11,0.03151
20.12,0.03437
20.13,0.03539
20.14,0.03617
20.15,0.03853
20.16,0.04062
20.17,0.04298
20.18,0.04629
20.19,0.04842
20.2,0.05028
20.21,0.05177
20.22,0.05458
20.23,0.05723
20.24,0.05904
20.25,0.06172
20.26,0.06421
20.27,0.06548
20.28,0.06715
20.29,0.07013
20.3,0.07244
20.31,0.07369
20.32,0.07563
20.33,0.07595
20.34,0.07531
20.35,0.07467
20.36,0.07347
20.37,0.07326
20.38,0.07136
20.39,0.06867
20.4,0.06768
20.41,0.06516
20.42,0.06249
20.43,0.05972
20.44,0.05703
20.45,0.05498
20.46,0.05126
20.47,0.04768
20.48,0.04556
20.49,0.04457
20.5,0.04468
20.51,0.04476
20.52,0.04367
20.53,0.04191
20.54,0.04171
20.55,0.04118
20.56,0.04104
20.57,0.04167
20.58,0.04214
20.59,0.04387
20.6,0.04573
20.61,0.04538
20.62,0.04455
20.63,0.04364
20.64,0.04182
20.65,0.04055
20.66,0.04101
20.67,0.04141
20.68,0.04
20.69,0.03766
20.7,0.03511
20.71,0.03215
20.72,0.02991
20.73,0.02794
20.74,0.02601
20.75,0.02368
20.76,0.02203
20.77,0.01924
20.78,0.01718
20.79,0.01668
20.8,0.01581
20.81,0.01521
20.82,0.01492
20.83,0.01406
20.84,0.01317
20.85,0.01265
20.86,0.01246
20.87,0.01276
20.88,0.01261
20.89,0.01187
20.9,0.01135
20.91,0.01077
20.92,0.01068
20.93,0.01059
20.94,0.01036
20.95,0.00969
20.96,0.0096
20.97,0.01017
20.98,0.00997
20.99,0.00977
21,0.01049
21.01,0.01032
21.02,0.00995
21.03,0.00968
21.04,0.00918
21.05,0.0091
21.06,0.00899
21.07,0.00835
21.08,0.00841
21.09,0.00873
21.1,0.00867
21.11,0.00868
21.12,0.00852
21.13,0.00871
21.14,0.00918
21.15,0.00838
21.16,0.00792
21.17,0.00797
21.18,0.00811
21.19,0.00813
21.2,0.00734
21.21,0.0074
21.22,0.00764
21.23,0.00801
21.24,0.00896
21.25,0.00908
21.26,0.00856
21.27,0.00771
21.28,0.0073
21.29,0.00767
21.3,0.00805
21.31,0.00785
21.32,0.00782
21.33,0.00835
21.34,0.0085
21.35,0.00821
21.36,0.00785
21.37,0.00806
21.38,0.00835
21.39,0.00804
21.4,0.0079
21.41,0.00763
21.42,0.00815
21.43,0.00864
21.44,0.00822
21.45,0.00808
21.46,0.00815
21.47,0.00907
21.48,0.00957
21.49,0.00875
21.5,0.00803
21.51,0.00813
21.52,0.00872
21.53,0.00882
21.54,0.00878
21.55,0.00915
21.56,0.00905
21.57,0.00892
21.58,0.00921
21.59,0.00914
21.6,0.00924
21.61,0.00885
21.62,0.00876
21.63,0.0098
21.64,0.00978
21.65,0.00965
21.66,0.01016
21.67,0.0103
21.68,0.01013
21.69,0.01051
21.7,0.01138
21.71,0.0116
21.72,0.01168
21.73,0.01136
21.74,0.01093
21.75,0.01109
21.76,0.01081
21.77,0.01058
21.78,0.01135
21.79,0.01147
21.8,0.01114
21.81,0.01075
21.82,0.01028
21.83,0.01031
21.84,0.01051
21.85,0.01084
21.86,0.01049
21.87,0.0099
21.88,0.00983
21.89,0.00987
21.9,0.00984
21.91,0.01008
21.92,0.00952
21.93,0.00894
21.94,0.00904
21.95,0.00925
21.96,0.00938
21.97,0.00933
21.98,0.00932
21.99,0.00957
22,0.00998
22.01,0.00994
22.02,0.00981
22.03,0.00994
22.04,0.01024
22.05,0.01059
22.06,0.01074
22.07,0.01102
22.08,0.01114
22.09,0.01141
22.1,0.0123
22.11,0.01263
22.12,0.01263
22.13,0.01269
22.14,0.01304
22.15,0.01308
22.16,0.01351
22.17,0.01429
22.18,0.01481
22.19,0.01546
22.2,0.01651
22.21,0.01715
22.22,0.01735
22.23,0.01797
22.24,0.01893
22.25,0.01988
22.26,0.02108
22.27,0.02151
22.28,0.02193
22.29,0.02361
22.3,0.0251
22.31,0.02596
22.32,0.02674
22.33,0.02766
22.34,0.02927
22.35,0.03104
22.36,0.0323
22.37,0.03297
22.38,0.03445
22.39,0.0366
22.4,0.03809
22.41,0.03948
22.42,0.04224
22.43,0.04415
22.44,0.04495
22.45,0.04723
22.46,0.04832
22.47,0.04896
22.48,0.05119
22.49,0.05421
22.5,0.05575
22.51,0.05616
22.52,0.05862
22.53,0.0596
22.54,0.05989
22.55,0.06109
22.56,0.06321
22.57,0.06199
22.58,0.05996
22.59,0.06
22.6,0.05897
22.61,0.05748
22.62,0.05684
22.63,0.05531
22.64,0.05346
22.65,0.0501
22.66,0.04741
22.67,0.04577
22.68,0.04373
22.69,0.04167
22.7,0.03935
22.71,0.03837
22.72,0.03699
22.73,0.03556
22.74,0.03337
22.75,0.03097
22.76,0.03033
22.77,0.02989
22.78,0.02928
22.79,0.02996
22.8,0.02972
22.81,0.02885
22.82,0.02904
22.83,0.02905
22.84,0.02917
22.85,0.02899
22.86,0.02699
22.87,0.02493
22.88,0.02292
22.89,0.02192
22.9,0.02192
22.91,0.02152
22.92,0.01922
22.93,0.01794
22.94,0.01794
22.95,0.01777
22.96,0.01666
22.97,0.01571
22.98,0.01472
22.99,0.0135
23,0.0128
23.01,0.01213
23.02,0.01138
23.03,0.01123
23.04,0.01101
23.05,0.0109
23.06,0.01052
23.07,0.00943
23.08,0.01019
23.09,0.01051
23.1,0.01002
23.11,0.01016
23.12,0.01007
23.13,0.00979
23.14,0.00881
23.15,0.00857
23.16,0.00909
23.17,0.00869
23.18,0.00919
23.19,0.00982
23.2,0.00946
23.21,0.00861
23.22,0.00801
23.23,0.00759
23.24,0.00781
23.25,0.0075
23.26,0.00742
23.27,0.00878
23.28,0.00917
23.29,0.00844
23.3,0.00813
23.31,0.00737
23.32,0.00692
23.33,0.00723
23.34,0.00709
23.35,0.00766
23.36,0.00768
23.37,0.0078
23.38,0.00767
23.39,0.00759
23.4,0.00769
23.41,0.00731
23.42,0.00691
23.43,0.00691
23.44,0.00749
23.45,0.00794
23.46,0.00845
23.47,0.0084
23.48,0.00779
23.49,0.00734
23.5,0.00742
23.51,0.00743
23.52,0.0071
23.53,0.00727
23.54,0.00809
23.55,0.00856
23.56,0.00726
23.57,0.00741
23.58,0.00794
23.59,0.00757
23.6,0.00774
23.61,0.00751
23.62,0.00795
23.63,0.00841
23.64,0.00822
23.65,0.00822
23.66,0.00796
23.67,0.00796
23.68,0.00882
23.69,0.00897
23.7,0.00916
23.71,0.00884
23.72,0.00841
23.73,0.00895
23.74,0.00948
23.75,0.00951
23.76,0.00894
23.77,0.00928
23.78,0.00949
23.79,0.00952
23.8,0.00988
23.81,0.00988
23.82,0.00974
23.83,0.00985
23.84,0.01
23.85,0.01026
23.86,0.01086
23.87,0.0106
23.88,0.00993
23.89,0.01022
23.9,0.01028
23.91,0.00982
23.92,0.00975
23.93,0.00938
23.94,0.0096
23.95,0.00999
23.96,0.01012
23.97,0.01001
23.98,0.00953
23.99,0.00979
24,0.00936
24.01,0.01
24.02,0.00974
24.03,0.00935
24.04,0.00941
24.05,0.00987
24.06,0.00909
24.07,0.00914
24.08,0.0096
24.09,0.00942
24.1,0.00966
24.11,0.00934
24.12,0.00929
24.13,0.01015
24.14,0.00996
24.15,0.01049
24.16,0.01167
24.17,0.01217
24.18,0.01174
24.19,0.01255
24.2,0.01232
24.21,0.0127
24.22,0.01397
24.23,0.01437
24.24,0.01381
24.25,0.01406
24.26,0.01489
24.27,0.01601
24.28,0.01574
24.29,0.01635
24.3,0.01728
24.31,0.01856
24.32,0.01879
24.33,0.01924
24.34,0.02044
24.35,0.02096
24.36,0.02124
24.37,0.0231
24.38,0.02423
24.39,0.02368
24.4,0.0254
24.41,0.02697
24.42,0.02772
24.43,0.02873
24.44,0.03013
24.45,0.03112
24.46,0.03211
24.47,0.03414
24.48,0.03485
24.49,0.03584
24.5,0.03835
24.51,0.03988
24.52,0.03984
24.53,0.04154
24.54,0.04364
24.55,0.0458
24.56,0.04601
24.57,0.04569
24.58,0.04631
24.59,0.04749
24.6,0.0483
24.61,0.04789
24.62,0.04737
24.63,0.04727
24.64,0.04641
24.65,0.04483
24.66,0.04295
24.67,0.04062
24.68,0.03929
24.69,0.03828
24.7,0.03685
24.71,0.03378
24.72,0.03145
24.73,0.02938
24.74,0.0269
24.75,0.02664
24.76,0.02458
24.77,0.02218
24.78,0.02114
24.79,0.0212
24.8,0.01967
24.81,0.01796
24.82,0.01705
24.83,0.01715
24.84,0.01579
24.85,0.01493
24.86,0.01469
24.87,0.01368
24.88,0.0145
24.89,0.01431
24.9,0.01309
24.91,0.01276
24.92,0.01254
24.93,0.01165
24.94,0.01138
24.95,0.01171
24.96,0.01107
24.97,0.01024
24.98,0.01073
24.99,0.01077
25,0.01163
25.01,0.01015
25.02,0.00985
25.03,0.01023
25.04,0.00992
25.05,0.00866
25.06,0.00899
25.07,0.00918
25.08,0.00884
25.09,0.00859
25.1,0.0087
25.11,0.00755
25.12,0.00785
25.13,0.0085
25.14,0.00793
25.15,0.0076
25.16,0.00851
25.17,0.00887
25.18,0.00824
25.19,0.00805
25.2,0.00813
25.21,0.00877
25.22,0.00837
25.23,0.00831
25.24,0.0079
25.25,0.00775
25.26,0.00802
25.27,0.00796
25.28,0.00839
25.29,0.00828
25.3,0.00818
25.31,0.00852
25.32,0.00917
25.33,0.00907
25.34,0.00818
25.35,0.00802
25.36,0.00914
25.37,0.00892
25.38,0.00848
25.39,0.00964
25.4,0.00973
25.41,0.00987
25.42,0.00931
25.43,0.00909
25.44,0.00916
25.45,0.00946
25.46,0.00931
25.47,0.00989
25.48,0.00976
25.49,0.01012
25.5,0.01079
25.51,0.01078
25.52,0.01155
25.53,0.01181
25.54,0.01124
25.55,0.01218
25.56,0.01267
25.57,0.01286
25.58,0.01257
25.59,0.01242
25.6,0.0132
25.61,0.01418
25.62,0.01336
25.63,0.01394
25.64,0.01523
25.65,0.01477
25.66,0.01454
25.67,0.01486
25.68,0.01722
25.69,0.01684
25.7,0.01656
25.71,0.01684
25.72,0.01771
25.73,0.0182
25.74,0.01788
25.75,0.01914
25.76,0.02007
25.77,0.0193
25.78,0.01935
25.79,0.02009
25.8,0.01985
25.81,0.02104
25.82,0.02063
25.83,0.02031
25.84,0.01999
25.85,0.01956
25.86,0.01888
25.87,0.01945
25.88,0.01902
25.89,0.01884
25.9,0.0183
25.91,0.01865
25.92,0.0186
25.93,0.01737
25.94,0.0165
25.95,0.01605
25.96,0.01618
25.97,0.01607
25.98,0.01568
25.99,0.0173
26,0.01728
26.01,0.01683
26.02,0.01737
26.03,0.01706
26.04,0.01652
26.05,0.01763
26.06,0.01721
26.07,0.01898
26.08,0.02142
26.09,0.02163
26.1,0.02209
26.11,0.02103
26.12,0.02315
26.13,0.02428
26.14,0.02595
26.15,0.02857
26.16,0.02932
26.17,0.0302
26.18,0.03125
26.19,0.03297
26.2,0.03313
26.21,0.03499
26.22,0.03722
26.23,0.03979
26.24,0.03951
26.25,0.04103
26.26,0.04436
26.27,0.04597
26.28,0.04757
26.29,0.0506
26.3,0.05395
26.31,0.0554
26.32,0.0572
26.33,0.05965
26.34,0.06354
26.35,0.06524
26.36,0.06703
26.37,0.07098
26.38,0.07312
26.39,0.07574
26.4,0.07931
26.41,0.08037
26.42,0.0824
26.43,0.08655
26.44,0.08876
26.45,0.08952
26.46,0.09262
26.47,0.09506
26.48,0.09471
26.49,0.09418
26.5,0.09416
26.51,0.09421
26.52,0.0921
26.53,0.0917
26.54,0.08983
26.55,0.08668
26.56,0.08332
26.57,0.07961
26.58,0.07613
26.59,0.07157
26.6,0.06739
26.61,0.06335
26.62,0.0596
26.63,0.05492
26.64,0.04963
26.65,0.04813
26.66,0.04457
26.67,0.04073
26.68,0.03813
26.69,0.03614
26.7,0.03316
26.71,0.0302
26.72,0.02811
26.73,0.0261
26.74,0.02311
26.75,0.02192
26.76,0.02163
26.77,0.0221
26.78,0.02056
26.79,0.01939
26.8,0.01844
26.81,0.01723
26.82,0.01658
26.83,0.01697
26.84,0.01673
26.85,0.01611
26.86,0.01463
26.87,0.01388
26.88,0.01359
26.89,0.0139
26.9,0.01386
26.91,0.01333
26.92,0.01278
26.93,0.01289
26.94,0.0121
26.95,0.0116
26.96,0.01147
26.97,0.01121
26.98,0.01095
26.99,0.01112
27,0.01085
27.01,0.01029
27.02,0.01016
27.03,0.01023
27.04,0.01043
27.05,0.01114
27.06,0.01073
27.07,0.01021
27.08,0.01006
27.09,0.00938
27.1,0.00945
27.11,0.00867
27.12,0.00759
27.13,0.00753
27.14,0.00803
27.15,0.00861
27.16,0.00818
27.17,0.00798
27.18,0.0085
27.19,0.00879
27.2,0.00822
27.21,0.00827
27.22,0.00831
27.23,0.00824
27.24,0.00799
27.25,0.00757
27.26,0.00766
27.27,0.00752
27.28,0.0072
27.29,0.00731
27.3,0.00763
27.31,0.00766
27.32,0.00742
27.33,0.00702
27.34,0.0067
27.35,0.00632
27.36,0.00703
27.37,0.00684
27.38,0.00643
27.39,0.0071
27.4,0.00766
27.41,0.00756
27.42,0.00759
27.43,0.00748
27.44,0.00774
27.45,0.00704
27.46,0.0073
27.47,0.00727
27.48,0.00693
27.49,0.00695
27.5,0.0069
27.51,0.00738
27.52,0.00769
27.53,0.00822
27.54,0.00749
27.55,0.00693
27.56,0.00638
27.57,0.00645
27.58,0.00703
27.59,0.00782
27.6,0.00748
27.61,0.00715
27.62,0.00658
27.63,0.00699
27.64,0.0074
27.65,0.0075
27.66,0.0074
27.67,0.00719
27.68,0.00691
27.69,0.00736
27.7,0.00717
27.71,0.00689
27.72,0.00748
27.73,0.00715
27.74,0.00723
27.75,0.00727
27.76,0.00733
27.77,0.00732
27.78,0.00794
27.79,0.00739
27.8,0.00731
27.81,0.00825
27.82,0.00884
27.83,0.00874
27.84,0.00855
27.85,0.00853
27.86,0.0084
27.87,0.00901
27.88,0.00982
27.89,0.00956
27.9,0.00965
27.91,0.01004
27.92,0.01032
27.93,0.01035
27.94,0.01058
27.95,0.01067
27.96,0.01055
27.97,0.01109
27.98,0.01197
27.99,0.01256
28,0.01247
28.01,0.01292
28.02,0.01319
28.03,0.01337
28.04,0.01379
28.05,0.0146
28.06,0.01531
28.07,0.01529
28.08,0.01606
28.09,0.01712
28.1,0.0178
28.11,0.01847
28.12,0.01909
28.13,0.01871
28.14,0.01862
28.15,0.01966
28.16,0.02121
28.17,0.02178
28.18,0.02241
28.19,0.02256
28.2,0.02363
28.21,0.02403
28.22,0.025
28.23,0.02596
28.24,0.02616
28.25,0.02647
28.26,0.02619
28.27,0.02517
28.28,0.02562
28.29,0.02592
28.3,0.02566
28.31,0.02618
28.32,0.02639
28.33,0.02551
28.34,0.02456
28.35,0.02445
28.36,0.02433
28.37,0.02314
28.38,0.02215
28.39,0.02111
28.4,0.02038
28.41,0.02005
28.42,0.01926
28.43,0.01745
28.44,0.0169
28.45,0.017
28.46,0.01645
28.47,0.01584
28.48,0.01537
28.49,0.01474
28.5,0.01478
28.51,0.01516
28.52,0.01508
28.53,0.01503
28.54,0.01407
28.55,0.01337
28.56,0.01301
28.57,0.01271
28.58,0.01258
28.59,0.01258
28.6,0.01248
28.61,0.01222
28.62,0.01168
28.63,0.0115
28.64,0.01143
28.65,0.01106
28.66,0.01068
28.67,0.01104
28.68,0.01111
28.69,0.01105
28.7,0.01146
28.71,0.01144
28.72,0.0108
28.73,0.01087
28.74,0.01054
28.75,0.01024
28.76,0.01059
28.77,0.01079
28.78,0.01056
28.79,0.01036
28.8,0.01085
28.81,0.01104
28.82,0.0108
28.83,0.01034
28.84,0.01034
28.85,0.0103
28.86,0.01034
28.87,0.01027
28.88,0.01031
28.89,0.01044
28.9,0.01027
28.91,0.01068
28.92,0.01117
28.93,0.01073
28.94,0.01012
28.95,0.01011
28.96,0.01015
28.97,0.0102
28.98,0.01055
28.99,0.01089
29,0.01109
29.01,0.0111
29.02,0.01077
29.03,0.01036
29.04,0.01025
29.05,0.00999
29.06,0.0106
29.07,0.01111
29.08,0.01091
29.09,0.01111
29.1,0.01131
29.11,0.01178
29.12,0.01149
29.13,0.01093
29.14,0.01116
29.15,0.01156
29.16,0.01235
29.17,0.01299
29.18,0.01262
29.19,0.01237
29.2,0.01238
29.21,0.01269
29.22,0.01388
29.23,0.01426
29.24,0.01412
29.25,0.01464
29.26,0.01472
29.27,0.01443
29.28,0.01511
29.29,0.01567
29.3,0.01579
29.31,0.01631
29.32,0.01627
29.33,0.01624
29.34,0.01697
29.35,0.01742
29.36,0.01745
29.37,0.01727
29.38,0.01671
29.39,0.01685
29.4,0.01702
29.41,0.01585
29.42,0.01515
29.43,0.01601
29.44,0.01585
29.45,0.01513
29.46,0.01528
29.47,0.0152
29.48,0.01477
29.49,0.0147
29.5,0.01503
29.51,0.01504
29.52,0.01518
29.53,0.01552
29.54,0.01536
29.55,0.01538
29.56,0.01652
29.57,0.01774
29.58,0.01872
29.59,0.01957
29.6,0.02007
29.61,0.02
29.62,0.02066
29.63,0.02213
29.64,0.02241
29.65,0.02269
29.66,0.02388
29.67,0.02538
29.68,0.02655
29.69,0.02761
29.7,0.0285
29.71,0.02861
29.72,0.02933
29.73,0.03065
29.74,0.03136
29.75,0.03209
29.76,0.03355
29.77,0.03521
29.78,0.03682
29.79,0.0385
29.8,0.03999
29.81,0.04118
29.82,0.04238
29.83,0.04466
29.84,0.04639
29.85,0.04668
29.86,0.0482
29.87,0.05008
29.88,0.05145
29.89,0.0533
29.9,0.05389
29.91,0.05406
29.92,0.0553
29.93,0.05659
29.94,0.05704
29.95,0.05677
29.96,0.05628
29.97,0.05655
29.98,0.05631
29.99,0.05604
30,0.055
30.01,0.05308
30.02,0.05094
30.03,0.04832
30.04,0.04582
30.05,0.04382
30.06,0.04164
30.07,0.0386
30.08,0.03624
30.09,0.03495
30.1,0.03283
30.11,0.03118
30.12,0.02922
30.13,0.02634
30.14,0.0243
30.15,0.0228
30.16,0.02205
30.17,0.02122
30.18,0.02061
30.19,0.01937
30.2,0.01759
30.21,0.01623
30.22,0.01581
30.23,0.01541
30.24,0.01528
30.25,0.01418
30.26,0.01269
30.27,0.01306
30.28,0.01356
30.29,0.01331
30.3,0.01308
30.31,0.01207
30.32,0.01126
30.33,0.01152
30.34,0.01157
30.35,0.01132
30.36,0.01028
30.37,0.01014
30.38,0.00989
30.39,0.00973
30.4,0.00982
30.41,0.00985
30.42,0.00943
30.43,0.00925
30.44,0.00955
30.45,0.00989
30.46,0.00962
30.47,0.00877
30.48,0.00882
30.49,0.00926
30.5,0.00883
30.51,0.00805
30.52,0.00795
30.53,0.0086
30.54,0.0094
30.55,0.00899
30.56,0.00857
30.57,0.00815
30.58,0.0078
30.59,0.0074
30.6,0.00733
30.61,0.00779
30.62,0.00777
30.63,0.0074
30.64,0.00751
30.65,0.00784
30.66,0.00834
30.67,0.00857
30.68,0.00828
30.69,0.00782
30.7,0.00713
30.71,0.00714
30.72,0.00747
30.73,0.00714
30.74,0.00745
30.75,0.00768
30.76,0.00805
30.77,0.00797
30.78,0.00754
30.79,0.00766
30.8,0.00837
30.81,0.00877
30.82,0.00838
30.83,0.00836
30.84,0.00836
30.85,0.00873
30.86,0.00933
30.87,0.00942
30.88,0.0088
30.89,0.00875
30.9,0.00915
30.91,0.00966
30.92,0.00996
30.93,0.00991
30.94,0.01029
30.95,0.00987
30.96,0.00989
30.97,0.00984
30.98,0.01008
30.99,0.01014
31,0.01059
31.01,0.01074
31.02,0.01129
31.03,0.01173
31.04,0.01191
31.05,0.0124
31.06,0.01178
31.07,0.01183
31.08,0.01257
31.09,0.01336
31.1,0.01317
31.11,0.01384
31.12,0.01442
31.13,0.01473
31.14,0.0156
31.15,0.01608
31.16,0.01614
31.17,0.01601
31.18,0.01674
31.19,0.01685
31.2,0.01743
31.21,0.01905
31.22,0.0199
31.23,0.02048
31.24,0.02087
31.25,0.02139
31.26,0.02193
31.27,0.02271
31.28,0.02359
31.29,0.02433
31.3,0.02505
31.31,0.02651
31.32,0.0269
31.33,0.02711
31.34,0.02837
31.35,0.03045
31.36,0.03154
31.37,0.03202
31.38,0.03257
31.39,0.03336
31.4,0.03546
31.41,0.03616
31.42,0.03626
31.43,0.03818
31.44,0.04006
31.45,0.04062
31.46,0.04101
31.47,0.04234
31.48,0.04385
31.49,0.04369
31.5,0.04458
31.51,0.04695
31.52,0.04868
31.53,0.04893
31.54,0.04937
31.55,0.0487
31.56,0.04925
31.57,0.04961
31.58,0.04792
31.59,0.04732
31.6,0.04682
31.61,0.04564
31.62,0.04491
31.63,0.04276
31.64,0.04049
31.65,0.04015
31.66,0.03773
31.67,0.03566
31.68,0.03312
31.69,0.03189
31.7,0.03039
31.71,0.02863
31.72,0.0275
31.73,0.02579
31.74,0.02478
31.75,0.02304
31.76,0.02099
31.77,0.01972
31.78,0.01976
31.79,0.0204
31.8,0.01915
31.81,0.01801
31.82,0.01717
31.83,0.01644
31.84,0.01567
31.85,0.01485
31.86,0.01489
31.87,0.01493
31.88,0.01484
31.89,0.01546
31.9,0.01507
31.91,0.01466
31.92,0.01388
31.93,0.01301
31.94,0.01324
31.95,0.01358
31.96,0.01313
31.97,0.01276
31.98,0.01205
31.99,0.01185
32,0.01217
32.01,0.01211
32.02,0.01261
32.03,0.01302
32.04,0.01199
32.05,0.01171
32.06,0.0117
32.07,0.01165
32.08,0.01174
32.09,0.01175
32.1,0.01185
32.11,0.01153
32.12,0.01198
32.13,0.01169
32.14,0.01147
32.15,0.01199
32.16,0.01141
32.17,0.01153
32.18,0.01102
32.19,0.01089
32.2,0.01116
32.21,0.01132
32.22,0.01102
32.23,0.01122
32.24,0.01085
32.25,0.01057
32.26,0.01046
32.27,0.01051
32.28,0.0104
32.29,0.01041
32.3,0.01087
32.31,0.01007
32.32,0.01023
32.33,0.01025
32.34,0.01062
32.35,0.01051
32.36,0.0105
32.37,0.01019
32.38,0.01035
32.39,0.01004
32.4,0.00955
32.41,0.00955
32.42,0.00977
32.43,0.00988
32.44,0.00983
32.45,0.0091
32.46,0.00906
32.47,0.00831
32.48,0.00726
32.49,0.00774
32.5,0.00788
32.51,0.00868
32.52,0.00898
32.53,0.00833
32.54,0.00795
32.55,0.00851
32.56,0.00856
32.57,0.00777
32.58,0.00854
32.59,0.00898
32.6,0.00893
32.61,0.00847
32.62,0.00888
32.63,0.00767
32.64,0.00713
32.65,0.00728
32.66,0.0084
32.67,0.0079
32.68,0.0076
32.69,0.00784
32.7,0.00726
32.71,0.00699
32.72,0.00782
32.73,0.00777
32.74,0.00744
32.75,0.00817
32.76,0.00819
32.77,0.00839
32.78,0.00863
32.79,0.00861
32.8,0.00876
32.81,0.00894
32.82,0.00941
32.83,0.00854
32.84,0.00832
32.85,0.00906
32.86,0.00908
32.87,0.00938
32.88,0.0099
32.89,0.00906
32.9,0.00978
32.91,0.01046
32.92,0.0113
32.93,0.01084
32.94,0.01082
32.95,0.01122
32.96,0.01163
32.97,0.01205
32.98,0.01234
32.99,0.0123
33,0.01246
33.01,0.01324
33.02,0.01391
33.03,0.01278
33.04,0.01327
33.05,0.01375
33.06,0.01399
33.07,0.01272
33.08,0.01366
33.09,0.01491
33.1,0.01539
33.11,0.01467
33.12,0.01479
33.13,0.01259
33.14,0.01284
33.15,0.01179
33.16,0.01222
33.17,0.01192
33.18,0.01202
33.19,0.01231
33.2,0.01146
33.21,0.00977
33.22,0.00958
33.23,0.00948
33.24,0.00852
33.25,0.00735
33.26,0.00781
33.27,0.00746
33.28,0.00771
33.29,0.00711
33.3,0.00646
33.31,0.00631
33.32,0.00683
33.33,0.00551
33.34,0.00538
33.35,0.00568
33.36,0.0055
33.37,0.005
33.38,0.00528
33.39,0.00491
33.4,0.00492
33.41,0.00528
33.42,0.00518
33.43,0.00563
33.44,0.00542
33.45,0.00508
33.46,0.00505
33.47,0.00454
33.48,0.005
33.49,0.00548
33.5,0.00502
33.51,0.00474
33.52,0.0052
33.53,0.00549
33.54,0.0062
33.55,0.00508
33.56,0.00436
33.57,0.00416
33.58,0.00505
33.59,0.005
33.6,0.00554
33.61,0.0058
33.62,0.00546
33.63,0.00477
33.64,0.00425
33.65,0.00556
33.66,0.00552
33.67,0.00537
33.68,0.00463
33.69,0.00493
33.7,0.00499
33.71,0.00502
33.72,0.00579
33.73,0.00541
33.74,0.00537
33.75,0.00523
33.76,0.00528
33.77,0.00526
33.78,0.0054
33.79,0.00548
33.8,0.00602
33.81,0.00575
33.82,0.00594
33.83,0.00584
33.84,0.00539
33.85,0.00581
33.86,0.00628
33.87,0.00663
33.88,0.0062
33.89,0.00659
33.9,0.00556
33.91,0.00604
33.92,0.00628
33.93,0.00632
33.94,0.00654
33.95,0.006
33.96,0.00735
33.97,0.00837
33.98,0.00824
33.99,0.00822
34,0.00733
34.01,0.00706
34.02,0.00726
34.03,0.00787
34.04,0.00807
34.05,0.00849
34.06,0.00827
34.07,0.00858
34.08,0.00892
34.09,0.00924
34.1,0.00872
34.11,0.00989
34.12,0.00971
34.13,0.00986
34.14,0.01118
34.15,0.01125
34.16,0.01146
34.17,0.0114
34.18,0.01214
34.19,0.01295
34.2,0.01381
34.21,0.01438
34.22,0.01508
34.23,0.01599
34.24,0.01628
34.25,0.01783
34.26,0.01802
34.27,0.01876
34.28,0.01983
34.29,0.02024
34.3,0.0203
34.31,0.02101
34.32,0.02231
34.33,0.02325
34.34,0.02372
34.35,0.02488
34.36,0.0257
34.37,0.02672
34.38,0.02946
34.39,0.0296
34.4,0.03008
34.41,0.02998
34.42,0.03171
34.43,0.03416
34.44,0.03499
34.45,0.03496
34.46,0.036
34.47,0.03667
34.48,0.03919
34.49,0.04139
34.5,0.04253
34.51,0.04198
34.52,0.04388
34.53,0.04262
34.54,0.04396
34.55,0.04559
34.56,0.04715
34.57,0.04846
34.58,0.04513
34.59,0.04431
34.6,0.04499
34.61,0.04402
34.62,0.0429
34.63,0.04198
34.64,0.04184
34.65,0.04059
34.66,0.03915
34.67,0.03821
34.68,0.03682
34.69,0.03734
34.7,0.03525
34.71,0.03464
34.72,0.03329
34.73,0.03228
34.74,0.03151
34.75,0.02997
34.76,0.02833
34.77,0.02671
34.78,0.02542
34.79,0.02386
34.8,0.02271
34.81,0.02201
34.82,0.02163
34.83,0.02016
34.84,0.01842
34.85,0.01749
34.86,0.01722
34.87,0.01634
34.88,0.0149
34.89,0.01492
34.9,0.01427
34.91,0.01312
34.92,0.01285
34.93,0.01228
34.94,0.01239
34.95,0.0116
34.96,0.01121
34.97,0.01097
34.98,0.00986
34.99,0.00988
35,0.00914
35.01,0.00902
35.02,0.0096
35.03,0.01024
35.04,0.0096
35.05,0.00951
35.06,0.00952
35.07,0.0091
35.08,0.00907
35.09,0.00939
35.1,0.00958
35.11,0.00975
35.12,0.00985
35.13,0.00959
35.14,0.00959
35.15,0.01114
35.16,0.01074
35.17,0.01051
35.18,0.01029
35.19,0.01082
35.2,0.01228
35.21,0.01231
35.22,0.01232
35.23,0.01354
35.24,0.01431
35.25,0.01364
35.26,0.01328
35.27,0.0142
35.28,0.01477
35.29,0.01474
35.3,0.01569
35.31,0.01611
35.32,0.01606
35.33,0.01676
35.34,0.01764
35.35,0.0185
35.36,0.01833
35.37,0.01888
35.38,0.01915
35.39,0.01943
35.4,0.01961
35.41,0.02083
35.42,0.02155
35.43,0.02222
35.44,0.02155
35.45,0.02151
35.46,0.02128
35.47,0.02115
35.48,0.02114
35.49,0.02145
35.5,0.02086
35.51,0.02052
35.52,0.01986
35.53,0.01932
35.54,0.01881
35.55,0.01886
35.56,0.01846
35.57,0.01816
35.58,0.01785
35.59,0.01711
35.6,0.01708
35.61,0.01609
35.62,0.0162
35.63,0.01553
35.64,0.01416
35.65,0.01416
35.66,0.01443
35.67,0.01495
35.68,0.01535
35.69,0.01507
35.7,0.01483
35.71,0.0154
35.72,0.01612
35.73,0.01619
35.74,0.01609
35.75,0.01666
35.76,0.01723
35.77,0.01745
35.78,0.01744
35.79,0.01824
35.8,0.01907
35.81,0.02028
35.82,0.02115
35.83,0.02107
35.84,0.02157
35.85,0.02324
35.86,0.02456
35.87,0.02444
35.88,0.0253
35.89,0.02621
35.9,0.02596
35.91,0.02642
35.92,0.0267
35.93,0.02631
35.94,0.02706
35.95,0.02831
35.96,0.02883
35.97,0.02859
35.98,0.02895
35.99,0.02911
36,0.02814
36.01,0.02858
36.02,0.02896
36.03,0.02886
36.04,0.02838
36.05,0.02733
36.06,0.02682
36.07,0.02571
36.08,0.02554
36.09,0.02552
36.1,0.025
36.11,0.0231
36.12,0.02199
36.13,0.02201
36.14,0.02225
36.15,0.02174
36.16,0.02105
36.17,0.02014
36.18,0.01904
36.19,0.01746
36.2,0.01663
36.21,0.01656
36.22,0.01658
36.23,0.01602
36.24,0.01481
36.25,0.01362
36.26,0.01407
36.27,0.01396
36.28,0.01256
36.29,0.0114
36.3,0.01115
36.31,0.01097
36.32,0.0102
36.33,0.00884
36.34,0.00849
36.35,0.00859
36.36,0.00831
36.37,0.00849
36.38,0.00804
36.39,0.00747
36.4,0.00722
36.41,0.00697
36.42,0.00719
36.43,0.00753
36.44,0.00715
36.45,0.00678
36.46,0.00667
36.47,0.00654
36.48,0.00627
36.49,0.00632
36.5,0.00641
36.51,0.00654
36.52,0.00631
36.53,0.006
36.54,0.0061
36.55,0.00604
36.56,0.00604
36.57,0.00604
36.58,0.00613
36.59,0.00645
36.6,0.00667
36.61,0.00636
36.62,0.00569
36.63,0.00557
36.64,0.00582
36.65,0.00654
36.66,0.00624
36.67,0.00557
36.68,0.0056
36.69,0.00548
36.7,0.00529
36.71,0.00515
36.72,0.00579
36.73,0.00639
36.74,0.00649
36.75,0.00585
36.76,0.00517
36.77,0.00578
36.78,0.0063
36.79,0.00613
36.8,0.00568
36.81,0.00577
36.82,0.00582
36.83,0.00548
36.84,0.00595
36.85,0.00616
36.86,0.00631
36.87,0.00621
36.88,0.00659
36.89,0.00592
36.9,0.00566
36.91,0.00656
36.92,0.00745
36.93,0.00783
36.94,0.00771
36.95,0.00721
36.96,0.00742
36.97,0.00829
36.98,0.00883
36.99,0.00946
37,0.00948
37.01,0.00878
37.02,0.00868
37.03,0.00924
37.04,0.00981
37.05,0.01011
37.06,0.01013
37.07,0.01001
37.08,0.01065
37.09,0.01162
37.1,0.01196
37.11,0.01191
37.12,0.01245
37.13,0.01342
37.14,0.01367
37.15,0.01327
37.16,0.01395
37.17,0.01504
37.18,0.0158
37.19,0.01624
37.2,0.01629
37.21,0.01642
37.22,0.01671
37.23,0.0172
37.24,0.01787
37.25,0.01814
37.26,0.01849
37.27,0.01835
37.28,0.01833
37.29,0.0195
37.3,0.02033
37.31,0.02074
37.32,0.02091
37.33,0.0203
37.34,0.02087
37.35,0.02132
37.36,0.02116
37.37,0.02133
37.38,0.02154
37.39,0.02101
37.4,0.02084
37.41,0.021
37.42,0.01984
37.43,0.01847
37.44,0.01749
37.45,0.0167
37.46,0.01628
37.47,0.01596
37.48,0.01546
37.49,0.01461
37.5,0.01373
37.51,0.01337
37.52,0.01283
37.53,0.01231
37.54,0.01171
37.55,0.01099
37.56,0.01048
37.57,0.01011
37.58,0.00978
37.59,0.00924
37.6,0.00887
37.61,0.00835
37.62,0.00738
37.63,0.00696
37.64,0.00673
37.65,0.00614
37.66,0.00598
37.67,0.00626
37.68,0.00627
37.69,0.0057
37.7,0.00531
37.71,0.00574
37.72,0.00596
37.73,0.00503
37.74,0.0047
37.75,0.00473
37.76,0.00445
37.77,0.00445
37.78,0.00454
37.79,0.00468
37.8,0.00446
37.81,0.00419
37.82,0.00419
37.83,0.00449
37.84,0.00445
37.85,0.00402
37.86,0.00399
37.87,0.00416
37.88,0.00432
37.89,0.00459
37.9,0.00438
37.91,0.00387
37.92,0.00387
37.93,0.00462
37.94,0.00485
37.95,0.00439
37.96,0.0047
37.97,0.00473
37.98,0.00426
37.99,0.00458
38,0.00493
38.01,0.00456
38.02,0.00443
38.03,0.00462
38.04,0.00479
38.05,0.00495
38.06,0.00491
38.07,0.00511
38.08,0.00584
38.09,0.00583
38.1,0.00548
38.11,0.00594
38.12,0.00627
38.13,0.00634
38.14,0.00647
38.15,0.00625
38.16,0.00621
38.17,0.00603
38.18,0.00551
38.19,0.00574
38.2,0.0059
38.21,0.00565
38.22,0.00581
38.23,0.00597
38.24,0.00545
38.25,0.00478
38.26,0.00488
38.27,0.00543
38.28,0.00559
38.29,0.00574
38.3,0.00586
38.31,0.00591
38.32,0.00588
38.33,0.00547
38.34,0.00528
38.35,0.00522
38.36,0.00546
38.37,0.00592
38.38,0.00593
38.39,0.00574
38.4,0.00583
38.41,0.00583
38.42,0.00611
38.43,0.00601
38.44,0.00593
38.45,0.00612
38.46,0.00622
38.47,0.00651
38.48,0.00646
38.49,0.00602
38.5,0.00579
38.51,0.00636
38.52,0.00669
38.53,0.00684
38.54,0.00711
38.55,0.00715
38.56,0.00713
38.57,0.00747
38.58,0.00725
38.59,0.00655
38.6,0.00675
38.61,0.00728
38.62,0.0074
38.63,0.00792
38.64,0.00862
38.65,0.00875
38.66,0.00828
38.67,0.00786
38.68,0.00766
38.69,0.00781
38.7,0.00775
38.71,0.00755
38.72,0.00739
38.73,0.00758
38.74,0.00687
38.75,0.00603
38.76,0.00601
38.77,0.00658
38.78,0.00676
38.79,0.00596
38.8,0.00553
38.81,0.0058
38.82,0.0063
38.83,0.00582
38.84,0.00516
38.85,0.00577
38.86,0.00549
38.87,0.005
38.88,0.00511
38.89,0.00476
38.9,0.00434
38.91,0.00442
38.92,0.00447
38.93,0.00447
38.94,0.00455
38.95,0.00455
38.96,0.00438
38.97,0.00453
38.98,0.00473
38.99,0.00416
39,0.00399
39.01,0.00416
39.02,0.00399
39.03,0.00395
39.04,0.00355
39.05,0.00365
39.06,0.00388
39.07,0.00394
39.08,0.00383
39.09,0.00352
39.1,0.00331
39.11,0.00377
39.12,0.00408
39.13,0.00446
39.14,0.00498
39.15,0.00517
39.16,0.00483
39.17,0.00447
39.18,0.00443
39.19,0.0046
39.2,0.00505
39.21,0.00496
39.22,0.00446
39.23,0.00447
39.24,0.00494
39.25,0.00535
39.26,0.0053
39.27,0.00531
39.28,0.00512
39.29,0.00453
39.3,0.0047
39.31,0.00594
39.32,0.00684
39.33,0.00641
39.34,0.00572
39.35,0.00567
39.36,0.00597
39.37,0.00613
39.38,0.00619
39.39,0.00682
39.4,0.00722
39.41,0.00682
39.42,0.00689
39.43,0.00691
39.44,0.00742
39.45,0.008
39.46,0.00773
39.47,0.00819
39.48,0.00779
39.49,0.00745
39.5,0.00754
39.51,0.00796
39.52,0.00805
39.53,0.00839
39.54,0.00896
39.55,0.00925
39.56,0.00884
39.57,0.00877
39.58,0.0087
39.59,0.00819
39.6,0.00849
39.61,0.00916
39.62,0.0096
39.63,0.00992
39.64,0.01027
39.65,0.01075
39.66,0.01086
39.67,0.01059
39.68,0.01093
39.69,0.0116
39.7,0.01156
39.71,0.01145
39.72,0.01185
39.73,0.0119
39.74,0.01201
39.75,0.01245
39.76,0.0134
39.77,0.01404
39.78,0.01442
39.79,0.01584
39.8,0.01642
39.81,0.01609
39.82,0.01489
39.83,0.01547
39.84,0.01668
39.85,0.0177
39.86,0.01774
39.87,0.019
39.88,0.01914
39.89,0.01875
39.9,0.01917
39.91,0.01973
39.92,0.01979
39.93,0.021
39.94,0.02193
39.95,0.02194
39.96,0.02167
39.97,0.02156
39.98,0.02121
39.99,0.02057
40,0.01978
40.01,0.01916
40.02,0.01918
40.03,0.01967
40.04,0.01943
40.05,0.01882
40.06,0.01802
40.07,0.01649
40.08,0.01586
40.09,0.01582
40.1,0.01492
40.11,0.01398
40.12,0.01348
40.13,0.01378
40.14,0.0133
40.15,0.013
40.16,0.01286
40.17,0.01123
40.18,0.01047
40.19,0.01139
40.2,0.01089
40.21,0.00984
40.22,0.00947
40.23,0.0088
40.24,0.00789
40.25,0.00782
40.26,0.00817
40.27,0.00793
40.28,0.00748
40.29,0.00691
40.3,0.00692
40.31,0.00759
40.32,0.00725
40.33,0.00644
40.34,0.00706
40.35,0.00684
40.36,0.0064
40.37,0.00666
40.38,0.00684
40.39,0.00713
40.4,0.00695
40.41,0.00697
40.42,0.00704
40.43,0.00689
40.44,0.00688
40.45,0.00643
40.46,0.00658
40.47,0.0063
40.48,0.00652
40.49,0.00731
40.5,0.00767
40.51,0.00735
40.52,0.00682
40.53,0.00672
40.54,0.00754
40.55,0.00708
40.56,0.00736
40.57,0.008
40.58,0.00772
40.59,0.00845
40.6,0.00871
40.61,0.00855
40.62,0.00816
40.63,0.00866
40.64,0.00923
40.65,0.00844
40.66,0.00793
40.67,0.00832
40.68,0.0091
40.69,0.00967
40.7,0.00988
40.71,0.00894
40.72,0.00865
40.73,0.00931
40.74,0.0095
40.75,0.00963
40.76,0.00963
40.77,0.00858
40.78,0.00906
40.79,0.00989
40.8,0.00994
40.81,0.00964
40.82,0.00899
40.83,0.00879
40.84,0.00915
40.85,0.00888
40.86,0.00889
40.87,0.0099
40.88,0.00896
40.89,0.00848
40.9,0.00873
40.91,0.00868
40.92,0.00833
40.93,0.00839
40.94,0.00796
40.95,0.00916
40.96,0.00995
40.97,0.00917
40.98,0.00872
40.99,0.00922
41,0.00951
41.01,0.00945
41.02,0.00939
41.03,0.00947
41.04,0.00946
41.05,0.00931
41.06,0.01002
41.07,0.01118
41.08,0.01145
41.09,0.01093
41.1,0.01072
41.11,0.01166
41.12,0.01181
41.13,0.0117
41.14,0.01156
41.15,0.01114
41.16,0.01176
41.17,0.01349
41.18,0.01365
41.19,0.01263
41.2,0.01325
41.21,0.01332
41.22,0.01291
41.23,0.01406
41.24,0.01414
41.25,0.01348
41.26,0.01301
41.27,0.01272
41.28,0.01283
41.29,0.01256
41.3,0.01212
41.31,0.01207
41.32,0.01247
41.33,0.01181
41.34,0.0114
41.35,0.0113
41.36,0.01071
41.37,0.01044
41.38,0.01134
41.39,0.01083
41.4,0.01068
41.41,0.01041
41.42,0.01052
41.43,0.00921
41.44,0.00884
41.45,0.0084
41.46,0.00848
41.47,0.00872
41.48,0.00801
41.49,0.00794
41.5,0.00811
41.51,0.00784
41.52,0.0072
41.53,0.00693
41.54,0.00692
41.55,0.00683
41.56,0.00763
41.57,0.00738
41.58,0.00739
41.59,0.0067
41.6,0.00696
41.61,0.00718
41.62,0.00734
41.63,0.00738
41.64,0.00737
41.65,0.00749
41.66,0.00775
41.67,0.00894
41.68,0.0094
41.69,0.00876
41.7,0.0088
41.71,0.00975
41.72,0.00934
41.73,0.00937
41.74,0.00993
41.75,0.00959
41.76,0.00999
41.77,0.0109
41.78,0.0108
41.79,0.01039
41.8,0.01178
41.81,0.01191
41.82,0.01261
41.83,0.01314
41.84,0.01383
41.85,0.01461
41.86,0.01445
41.87,0.01403
41.88,0.01444
41.89,0.01552
41.9,0.01711
41.91,0.01742
41.92,0.01711
41.93,0.01653
41.94,0.01762
41.95,0.01763
41.96,0.0181
41.97,0.01938
41.98,0.01999
41.99,0.02034
42,0.02123
42.01,0.02129
42.02,0.02098
42.03,0.01962
42.04,0.01859
42.05,0.01834
42.06,0.01743
42.07,0.01786
42.08,0.01785
42.09,0.01756
42.1,0.01832
42.11,0.01758
42.12,0.01615
42.13,0.01617
42.14,0.01614
42.15,0.01681
42.16,0.01537
42.17,0.01511
42.18,0.01611
42.19,0.01684
42.2,0.01609
42.21,0.01527
42.22,0.01369
42.23,0.01435
42.24,0.01557
42.25,0.0156
42.26,0.01636
42.27,0.01819
42.28,0.01773
42.29,0.01803
42.3,0.01846
42.31,0.01927
42.32,0.02015
42.33,0.02078
42.34,0.02106
42.35,0.02246
42.36,0.0232
42.37,0.02348
42.38,0.02448
42.39,0.02483
42.4,0.02527
42.41,0.02634
42.42,0.0274
42.43,0.02788
42.44,0.02836
42.45,0.02964
42.46,0.031
42.47,0.03111
42.48,0.03218
42.49,0.0333
42.5,0.03378
42.51,0.03522
42.52,0.03654
42.53,0.03614
42.54,0.03624
42.55,0.0361
42.56,0.0373
42.57,0.03938
42.58,0.03916
42.59,0.03872
42.6,0.03865
42.61,0.04016
42.62,0.04001
42.63,0.0383
42.64,0.03789
42.65,0.038
42.66,0.03714
42.67,0.03499
42.68,0.03464
42.69,0.03325
42.7,0.03244
42.71,0.03073
42.72,0.0287
42.73,0.02655
42.74,0.02617
42.75,0.02492
42.76,0.02493
42.77,0.02263
42.78,0.02037
42.79,0.0198
42.8,0.01847
42.81,0.01904
42.82,0.01907
42.83,0.01691
42.84,0.01628
42.85,0.01581
42.86,0.01616
42.87,0.01529
42.88,0.01541
42.89,0.01558
42.9,0.01605
42.91,0.01675
42.92,0.0163
42.93,0.01664
42.94,0.01651
42.95,0.01693
42.96,0.01699
42.97,0.01711
42.98,0.01755
42.99,0.01851
43,0.01762
43.01,0.01718
43.02,0.01892
43.03,0.01869
43.04,0.01871
43.05,0.02166
43.06,0.02169
43.07,0.02241
43.08,0.02204
43.09,0.02259
43.1,0.02405
43.11,0.02368
43.12,0.02468
43.13,0.02422
43.14,0.02483
43.15,0.0265
43.16,0.02725
43.17,0.02685
43.18,0.02596
43.19,0.0267
43.2,0.02665
43.21,0.0263
43.22,0.02739
43.23,0.02728
43.24,0.02576
43.25,0.02487
43.26,0.02534
43.27,0.02543
43.28,0.02458
43.29,0.02266
43.3,0.02227
43.31,0.02033
43.32,0.02076
43.33,0.01983
43.34,0.01891
43.35,0.01838
43.36,0.01758
43.37,0.01672
43.38,0.01729
43.39,0.01688
43.4,0.01625
43.41,0.01545
43.42,0.01521
43.43,0.01447
43.44,0.014
43.45,0.01301
43.46,0.01332
43.47,0.01285
43.48,0.01287
43.49,0.01385
43.5,0.01393
43.51,0.01365
43.52,0.01311
43.53,0.01234
43.54,0.01352
43.55,0.01317
43.56,0.01215
43.57,0.01164
43.58,0.01196
43.59,0.01275
43.6,0.01345
43.61,0.01325
43.62,0.01338
43.63,0.01286
43.64,0.01298
43.65,0.01281
43.66,0.01292
43.67,0.01259
43.68,0.0112
43.69,0.0105
43.7,0.01072
43.71,0.01203
43.72,0.01165
43.73,0.01124
43.74,0.01114
43.75,0.01064
43.76,0.00927
43.77,0.0094
43.78,0.00935
43.79,0.00891
43.8,0.00867
43.81,0.008
43.82,0.00747
43.83,0.00764
43.84,0.0077
43.85,0.00771
43.86,0.00776
43.87,0.00741
43.88,0.00744
43.89,0.00693
43.9,0.00649
43.91,0.00619
43.92,0.00637
43.93,0.00662
43.94,0.00664
43.95,0.00577
43.96,0.00626
43.97,0.00624
43.98,0.00613
43.99,0.00572
44,0.00596
44.01,0.00603
44.02,0.00558
44.03,0.00511
44.04,0.00527
44.05,0.00649
44.06,0.00658
44.07,0.00663
44.08,0.00712
44.09,0.00807
44.1,0.00846
44.11,0.00782
44.12,0.00707
44.13,0.00691
44.14,0.00789
44.15,0.00852
44.16,0.00873
44.17,0.00912
44.18,0.00888
44.19,0.00846
44.2,0.00882
44.21,0.0095
44.22,0.01003
44.23,0.00973
44.24,0.00935
44.25,0.00937
44.26,0.00914
44.27,0.00914
44.28,0.01065
44.29,0.01003
44.3,0.01009
44.31,0.01089
44.32,0.01146
44.33,0.01169
44.34,0.01145
44.35,0.01103
44.36,0.01065
44.37,0.01203
44.38,0.01267
44.39,0.01118
44.4,0.01204
44.41,0.01194
44.42,0.01152
44.43,0.01255
44.44,0.01295
44.45,0.01207
44.46,0.01122
44.47,0.01181
44.48,0.01126
44.49,0.01114
44.5,0.01049
44.51,0.01101
44.52,0.01149
44.53,0.01094
44.54,0.00974
44.55,0.01031
44.56,0.01018
44.57,0.00998
44.58,0.01006
44.59,0.00955
44.6,0.00936
44.61,0.01007
44.62,0.01052
44.63,0.01015
44.64,0.01092
44.65,0.01041
44.66,0.01018
44.67,0.01121
44.68,0.01149
44.69,0.01215
44.7,0.01295
44.71,0.01375
44.72,0.014
44.73,0.01348
44.74,0.0127
44.75,0.01342
44.76,0.01429
44.77,0.01498
44.78,0.01587
44.79,0.01555
44.8,0.01602
44.81,0.01678
44.82,0.01735
44.83,0.01772
44.84,0.01835
44.85,0.01792
44.86,0.01763
44.87,0.01797
44.88,0.01901
44.89,0.02008
44.9,0.02014
44.91,0.01943
44.92,0.0203
44.93,0.02045
44.94,0.02067
44.95,0.02053
44.96,0.02098
44.97,0.02088
44.98,0.0216
44.99,0.02169
45,0.02121
45.01,0.02027
45.02,0.01948
45.03,0.01846
45.04,0.01772
45.05,0.0172
45.06,0.01721
45.07,0.0169
45.08,0.01615
45.09,0.01547
45.1,0.01473
45.11,0.01396
45.12,0.01377
45.13,0.01289
45.14,0.01243
45.15,0.01161
45.16,0.0119
45.17,0.01104
45.18,0.01093
45.19,0.01093
45.2,0.00983
45.21,0.00927
45.22,0.0094
45.23,0.00968
45.24,0.00933
45.25,0.00983
45.26,0.01024
45.27,0.00966
45.28,0.0094
45.29,0.00972
45.3,0.00963
45.31,0.00958
45.32,0.00912
45.33,0.00884
45.34,0.00909
45.35,0.00963
45.36,0.00997
45.37,0.00953
45.38,0.00914
45.39,0.00923
45.4,0.00883
45.41,0.00891
45.42,0.00924
45.43,0.00924
45.44,0.0095
45.45,0.00986
45.46,0.00985
45.47,0.00989
45.48,0.00915
45.49,0.00936
45.5,0.00956
45.51,0.00934
45.52,0.00939
45.53,0.00835
45.54,0.00845
45.55,0.00916
45.56,0.00975
45.57,0.00953
45.58,0.00963
45.59,0.00912
45.6,0.00876
45.61,0.00888
45.62,0.00863
45.63,0.00921
45.64,0.00818
45.65,0.00767
45.66,0.00798
45.67,0.00827
45.68,0.00784
45.69,0.00823
45.7,0.00881
45.71,0.00832
45.72,0.00775
45.73,0.00781
45.74,0.00776
45.75,0.00797
45.76,0.00764
45.77,0.00815
45.78,0.00769
45.79,0.00723
45.8,0.00671
45.81,0.00746
45.82,0.00737
45.83,0.00747
45.84,0.00776
45.85,0.00829
45.86,0.00755
45.87,0.0071
45.88,0.00725
45.89,0.00775
45.9,0.00778
45.91,0.0079
45.92,0.00726
45.93,0.00787
45.94,0.0084
45.95,0.00846
45.96,0.00771
45.97,0.00758
45.98,0.00736
45.99,0.00844
46,0.00748
46.01,0.00721
46.02,0.00745
46.03,0.00688
46.04,0.00601
46.05,0.00622
46.06,0.00644
46.07,0.00686
46.08,0.00698
46.09,0.00636
46.1,0.00623
46.11,0.00612
46.12,0.00559
46.13,0.00541
46.14,0.00508
46.15,0.00442
46.16,0.00409
46.17,0.00437
46.18,0.00397
46.19,0.004
46.2,0.0034
46.21,0.00406
46.22,0.00348
46.23,0.00276
46.24,0.00286
46.25,0.0029
46.26,0.00319
46.27,0.00311
46.28,0.0029
46.29,0.0032
46.3,0.00314
46.31,0.00348
46.32,0.00327
46.33,0.00252
46.34,0.00218
46.35,0.00291
46.36,0.0031
46.37,0.0033
46.38,0.00277
46.39,0.00177
46.4,0.00196
46.41,0.00211
46.42,0.00159
46.43,0.00199
46.44,0.00194
46.45,0.00206
46.46,0.00202
46.47,0.00206
46.48,0.0022
46.49,0.00272
46.5,0.00259
46.51,0.00245
46.52,0.00259
46.53,0.00288
46.54,0.00264
46.55,0.00248
46.56,0.00237
46.57,0.00297
46.58,0.0027
46.59,0.00193
46.6,0.00147
46.61,0.00166
46.62,0.00216
46.63,0.00295
46.64,0.00302
46.65,0.00344
46.66,0.00294
46.67,0.00337
46.68,0.003
46.69,0.00228
46.7,0.00191
46.71,0.0026
46.72,0.00259
46.73,0.00252
46.74,0.00294
46.75,0.00205
46.76,0.00207
46.77,0.00268
46.78,0.0033
46.79,0.0028
46.8,0.00234
46.81,0.00169
46.82,0.00199
46.83,0.00254
46.84,0.00259
46.85,0.00277
46.86,0.00244
46.87,0.00282
46.88,0.00285
46.89,0.00252
46.9,0.00199
46.91,0.00222
46.92,0.00226
46.93,0.00223
46.94,0.00184
46.95,0.00145
46.96,0.00178
46.97,0.00241
46.98,0.00229
46.99,0.00205
47,0.00172
47.01,0.00203
47.02,0.00189
47.03,0.00279
47.04,0.00299
47.05,0.00252
47.06,0.0019
47.07,0.00169
47.08,0.00239
47.09,0.00319
47.1,0.00295
47.11,0.00218
47.12,0.00214
47.13,0.00233
47.14,0.00252
47.15,0.00251
47.16,0.00174
47.17,0.00199
47.18,0.00243
47.19,0.00275
47.2,0.00268
47.21,0.00229
47.22,0.00211
47.23,0.00225
47.24,0.00217
47.25,0.00228
47.26,0.00207
47.27,0.00214
47.28,0.00141
47.29,0.00154
47.3,0.00181
47.31,0.00173
47.32,0.00181
47.33,0.0016
47.34,0.00138
47.35,0.00114
47.36,9.48E-04
47.37,7.12E-04
47.38,0.00102
47.39,0.00142
47.4,0.00142
47.41,9.70E-04
47.42,6.05E-04
47.43,6.96E-04
47.44,0.00112
47.45,9.11E-04
47.46,8.29E-04
47.47,9.50E-04
47.48,8.83E-04
47.49,4.87E-04
47.5,4.59E-04
47.51,3.52E-04
47.52,3.60E-04
47.53,4.88E-04
47.54,7.58E-04
47.55,8.86E-04
47.56,8.81E-04
47.57,4.13E-04
47.58,9.28E-05
47.59,1.83E-04
47.6,4.27E-04
47.61,3.94E-04
47.62,0
47.63,3.64E-04
47.64,2.65E-04
47.65,2.77E-04
47.66,5.96E-04
47.67,5.96E-04
47.68,5.15E-04
47.69,4.15E-04
47.7,5.28E-04
47.71,3.57E-04
47.72,5.37E-04
47.73,0.00102
47.74,7.68E-04
47.75,4.28E-04
47.76,4.16E-04
47.77,3.38E-04
47.78,5.24E-04
47.79,3.66E-04
47.8,4.12E-04
47.81,4.90E-04
47.82,6.43E-04
47.83,0.00101
47.84,9.06E-04
47.85,2.19E-04
47.86,3.91E-04
47.87,7.62E-04
47.88,0.00123
47.89,9.20E-04
47.9,9.75E-04
47.91,0.00124
47.92,0.00124
47.93,0.00151
47.94,0.00156
47.95,0.00131
47.96,0.00163
47.97,0.00212
47.98,0.00158
47.99,0.00159
48,0.00179
48.01,0.00158
48.02,0.00132
48.03,0.00135
48.04,0.00178
48.05,0.00218
48.06,0.00198
48.07,0.00198
48.08,0.00201
48.09,0.00204
48.1,0.0023
48.11,0.00212
48.12,0.00224
48.13,0.0023
48.14,0.00237
48.15,0.00212
48.16,0.00315
48.17,0.0034
48.18,0.00287
48.19,0.00255
48.2,0.00251
48.21,0.00225
48.22,0.00208
48.23,0.00208
48.24,0.00208
48.25,0.00291
48.26,0.00333
48.27,0.00283
48.28,0.00248
48.29,0.00215
48.3,0.00191
48.31,0.00193
48.32,0.00163
48.33,0.00162
48.34,0.0017
48.35,0.00171
48.36,0.00171
48.37,0.00129
48.38,0.0013
48.39,0.00135
48.4,0.00135
48.41,0.00118
48.42,0.00118
48.43,8.61E-04
48.44,3.62E-04
48.45,2.30E-04
48.46,5.17E-04
48.47,7.02E-04
48.48,6.50E-04
48.49,6.53E-04
48.5,7.71E-04
48.51,6.97E-04
48.52,5.83E-04
48.53,1.80E-04
48.54,1.47E-04
48.55,6.45E-04
48.56,4.29E-04
48.57,3.18E-04
48.58,2.16E-04
48.59,7.05E-04
48.6,0.00114
48.61,7.86E-04
48.62,3.29E-04
48.63,2.69E-04
48.64,5.13E-04
48.65,5.55E-04
48.66,7.83E-04
48.67,6.86E-04
48.68,3.89E-04
48.69,2.57E-04
48.7,2.78E-04
48.71,5.71E-04
48.72,2.50E-04
48.73,2.53E-04
48.74,4.33E-04
48.75,4.11E-04
48.76,3.44E-04
48.77,1.30E-04
48.78,2.72E-04
48.79,5.98E-04
48.8,6.42E-04
48.81,5.36E-04
48.82,5.57E-04
48.83,4.29E-04
48.84,4.32E-04
48.85,4.31E-04
48.86,3.73E-04
48.87,4.13E-04
48.88,3.24E-04
48.89,1.12E-04
48.9,5.42E-04
48.91,0.00102
48.92,8.03E-04
48.93,3.33E-04
48.94,7.63E-04
48.95,0.00103
48.96,9.40E-04
48.97,9.41E-04
48.98,0.00111
48.99,0.00121
49,0.00157
49.01,0.00174
49.02,0.0016
49.03,9.00E-04
49.04,8.74E-04
49.05,0.00104
49.06,4.49E-04
49.07,3.84E-04
49.08,0.00117
49.09,0.00143
49.1,0.00122
49.11,0.0014
49.12,0.00202
49.13,0.00193
49.14,0.00182
49.15,0.00183
49.16,0.0023
49.17,0.00283
49.18,0.00263
49.19,0.00215
49.2,0.00238
49.21,0.00315
49.22,0.00311
49.23,0.00255
49.24,0.00217
49.25,0.00241
49.26,0.00286
49.27,0.00375
49.28,0.00405
49.29,0.00379
49.3,0.00325
49.31,0.00309
49.32,0.00346
49.33,0.00396
49.34,0.00424
49.35,0.0041
49.36,0.00429
49.37,0.00443
49.38,0.00436
49.39,0.00498
49.4,0.00471
49.41,0.00424
49.42,0.00446
49.43,0.00485
49.44,0.00516
49.45,0.0048
49.46,0.00539
49.47,0.00578
49.48,0.00561
49.49,0.00535
49.5,0.00554
49.51,0.0055
49.52,0.00523
49.53,0.00508
49.54,0.00515
49.55,0.00578
49.56,0.0057
49.57,0.00507
49.58,0.00506
49.59,0.00549
49.6,0.00594
49.61,0.0062
49.62,0.00606
49.63,0.006
49.64,0.00577
49.65,0.00531
49.66,0.00553
49.67,0.00533
49.68,0.00545
49.69,0.00658
49.7,0.00744
49.71,0.00704
49.72,0.00671
49.73,0.00718
49.74,0.00804
49.75,0.00818
49.76,0.00838
49.77,0.00836
49.78,0.00853
49.79,0.00924
49.8,0.00907
49.81,0.00932
49.82,0.01002
49.83,0.01048
49.84,0.00999
49.85,0.00975
49.86,0.00974
49.87,0.01034
49.88,0.01081
49.89,0.01141
49.9,0.01229
49.91,0.01248
49.92,0.01178
49.93,0.01218
49.94,0.01231
49.95,0.01178
49.96,0.01177
49.97,0.01187
49.98,0.01176
49.99,0.0116
50,0.01137
48.1,0.0023
48.11,0.00212
48.12,0.00224
48.13,0.0023
48.14,0.00237
48.15,0.00212
48.16,0.00315
48.17,0.0034
48.18,0.00287
48.19,0.00255
48.2,0.00251
48.21,0.00225
48.22,0.00208
48.23,0.00208
48.24,0.00208
48.25,0.00291
48.26,0.00333
48.27,0.00283
48.28,0.00248
48.29,0.00215
48.3,0.00191
48.31,0.00193
48.32,0.00163
48.33,0.00162
48.34,0.0017
48.35,0.00171
48.36,0.00171
48.37,0.00129
48.38,0.0013
48.39,0.00135
48.4,0.00135
48.41,0.00118
48.42,0.00118
48.43,8.61E-04
48.44,3.62E-04
48.45,2.30E-04
48.46,5.17E-04
48.47,7.02E-04
48.48,6.50E-04
48.49,6.53E-04
48.5,7.71E-04
48.51,6.97E-04
48.52,5.83E-04
48.53,1.80E-04
48.54,1.47E-04
48.55,6.45E-04
48.56,4.29E-04
48.57,3.18E-04
48.58,2.16E-04
48.59,7.05E-04
48.6,0.00114
48.61,7.86E-04
48.62,3.29E-04
48.63,2.69E-04
48.64,5.13E-04
48.65,5.55E-04
48.66,7.83E-04
48.67,6.86E-04
48.68,3.89E-04
48.69,2.57E-04
48.7,2.78E-04
48.71,5.71E-04
48.72,2.50E-04
48.73,2.53E-04
48.74,4.33E-04
48.75,4.11E-04
48.76,3.44E-04
48.77,1.30E-04
48.78,2.72E-04
48.79,5.98E-04
48.8,6.42E-04
48.81,5.36E-04
48.82,5.57E-04
48.83,4.29E-04
48.84,4.32E-04
48.85,4.31E-04
48.86,3.73E-04
48.87,4.13E-04
48.88,3.24E-04
48.89,1.12E-04
48.9,5.42E-04
48.91,0.00102
48.92,8.03E-04
48.93,3.33E-04
48.94,7.63E-04
48.95,0.00103
48.96,9.40E-04
48.97,9.41E-04
48.98,0.00111
48.99,0.00121
49,0.00157
49.01,0.00174
49.02,0.0016
49.03,9.00E-04
49.04,8.74E-04
49.05,0.00104
49.06,4.49E-04
49.07,3.84E-04
49.08,0.00117
49.09,0.00143
49.1,0.00122
49.11,0.0014
49.12,0.00202
49.13,0.00193
49.14,0.00182
49.15,0.00183
49.16,0.0023
49.17,0.00283
49.18,0.00263
49.19,0.00215
49.2,0.00238
49.21,0.00315
49.22,0.00311
49.23,0.00255
49.24,0.00217
49.25,0.00241
49.26,0.00286
49.27,0.00375
49.28,0.00405
49.29,0.00379
49.3,0.00325
49.31,0.00309
49.32,0.00346
49.33,0.00396
49.34,0.00424
49.35,0.0041
49.36,0.00429
49.37,0.00443
49.38,0.00436
49.39,0.00498
49.4,0.00471
49.41,0.00424
49.42,0.00446
49.43,0.00485
49.44,0.00516
49.45,0.0048
49.46,0.00539
49.47,0.00578
49.48,0.00561
49.49,0.00535
49.5,0.00554
49.51,0.0055
49.52,0.00523
49.53,0.00508
49.54,0.00515
49.55,0.00578
49.56,0.0057
49.57,0.00507
49.58,0.00506
49.59,0.00549
49.6,0.00594
49.61,0.0062
49.62,0.00606
49.63,0.006
49.64,0.00577
49.65,0.00531
49.66,0.00553
49.67,0.00533
49.68,0.00545
49.69,0.00658
49.7,0.00744
49.71,0.00704
49.72,0.00671
49.73,0.00718
49.74,0.00804
49.75,0.00818
49.76,0.00838
49.77,0.00836
49.78,0.00853
49.79,0.00924
49.8,0.00907
49.81,0.00932
49.82,0.01002
49.83,0.01048
49.84,0.00999
49.85,0.00975
49.86,0.00974
49.87,0.01034
49.88,0.01081
49.89,0.01141
49.9,0.01229
49.91,0.01248
49.92,0.01178
49.93,0.01218
49.94,0.01231
49.95,0.01178
49.96,0.01177
49.97,0.01187
49.98,0.01176
49.99,0.0116
50,0.01137
