X [s],R TIBIALIS ANTERIOR: EMG 1->MAV [Volts],L TIBIALIS ANTERIOR: EMG 2->MAV [Volts],R VASTUS LATERALIS: EMG 3->MAV [Volts],L VASTUS LATERALIS: EMG 4->MAV [Volts],R RECTUS FEMORIS: EMG 5->MAV [Volts],L RECTUS FEMORIS: EMG 6->MAV [Volts],R GASTROCNEMIUS MEDIAL HEAD: EMG 7->MAV [Volts],L GASTROCNEMIUS MEDIAL HEAD: EMG 8->MAV [Volts],R SEMITENDINOSUS: EMG 9->MAV [Volts],L SEMITENDINOSUS: EMG 10->MAV [Volts],R GASTROCNEMIUS LATERAL HEAD: EMG 11->MAV [Volts],L GASTROCNEMIUS LATERAL HEAD: EMG 12->MAV [Volts]
0.062307692307692175,2.5100455273966798e-05,3.68009462097992e-06,5.085832004899279e-06,6.171257120968221e-06,6.774465291385923e-05,9.956257475588851e-06,1.2457211157605267e-05,2.531586179846575e-05,6.194336375860606e-06,1.163335114900595e-05,1.667022711728805e-05,1.828018112727629e-05
0.12461538461538436,2.9195976756805447e-05,3.6703034093458578e-06,6.181747652315532e-06,6.163564016740489e-06,8.304061437082547e-05,1.0405254203978604e-05,8.794600855092465e-06,1.5227423045871546e-05,6.200630711816757e-06,1.1522850406227765e-05,1.6828285174597114e-05,1.269499761325695e-05
0.18692307692307655,2.7683934814130377e-05,3.6982782925557936e-06,5.3676788373498615e-06,5.029182892476077e-06,5.9418631127527985e-05,1.0147885364375497e-05,1.2160677493019041e-05,1.107735054214724e-05,5.7635233299417145e-06,1.1831972802175036e-05,1.4884031489733237e-05,6.485275031072509e-06
0.24923076923076873,1.8042394696019907e-05,3.702474528684737e-06,5.271864910364835e-06,6.18944076175391e-06,5.996623914631035e-05,1.0266079208065548e-05,1.0992726505776317e-05,1.2617367303372855e-05,5.496363286520515e-06,1.1662724819198426e-05,1.5280575278116735e-05,5.268368042266047e-06
0.31153846153846093,9.836664891101539e-06,3.618549904634468e-06,6.2216118789611604e-06,1.1724968850757022e-05,7.540067613144666e-05,9.75413903248068e-06,8.044174881642145e-06,3.485249590606069e-05,6.042572679850385e-06,1.1978141478863336e-05,1.620024925159669e-05,5.669807493783689e-06
0.3738461538461531,6.7692199972195034e-06,3.6038630971309735e-06,5.9145876493952676e-06,1.0415045419165381e-05,5.729184128355769e-05,9.52964063879828e-06,8.141387574293428e-06,0.00013283588896229048,6.172655823159327e-06,1.1262684055661036e-05,1.6553432027421876e-05,5.979629213707464e-06
0.4361538461538453,7.045471866954737e-06,3.6661071902699405e-06,1.0584293386273203e-05,6.976234100145954e-06,4.611448066071944e-05,1.0968248521692203e-05,6.542623543263441e-06,0.00013374437312781615,6.317425797893368e-06,1.1023498919845072e-05,1.620934110064809e-05,5.454400952942251e-06
0.49846153846153746,7.387464701243592e-06,3.6178505306831236e-06,9.38696880060282e-06,7.719666353504332e-06,4.199308246602603e-05,1.0481485755301871e-05,7.765125502364375e-06,3.5258831118530525e-05,6.022990265582469e-06,1.150116990800143e-05,1.56253656536857e-05,4.52843264113767e-06
0.5607692307692297,7.382569108690026e-06,3.621347382439429e-06,5.141082382209561e-06,6.597174542359123e-06,2.3410073506605992e-05,9.935276357471897e-06,1.139346659163228e-05,1.2318036183719035e-05,5.20472522680393e-06,1.1806795385401377e-05,1.623102163866482e-05,4.757127233527096e-06
0.6230769230769219,8.107817705630775e-06,3.740240597949196e-06,6.2188143876558875e-06,5.326415925803e-06,1.9107537894550812e-05,1.0259784880399063e-05,1.614779634972289e-05,1.907117057532067e-05,5.31242849225085e-06,1.2743254251764331e-05,1.704369166285839e-05,5.019391682973643e-06
0.685384615384614,1.0509460545430709e-05,3.7157625882855427e-06,7.0909310577368006e-06,5.367678866482114e-06,2.2242821885498642e-05,1.0001017288866857e-05,2.8745581310592646e-05,2.068532077833159e-05,6.086633100466088e-06,1.2462106768869792e-05,1.7087752054815535e-05,4.4990590346571935e-06
0.7476923076923062,1.1230512887057861e-05,3.6968795522322277e-06,7.414740192975463e-06,5.159266052838044e-06,2.247711150692074e-05,9.426133663718398e-06,2.8075583093330653e-05,1.5404364040231635e-05,6.114607966622998e-06,1.4407059853027704e-05,1.6450624319238234e-05,4.551511928951868e-06
0.8099999999999984,9.366686990593583e-06,3.791294747657048e-06,6.4545026702944595e-06,9.152679218497421e-06,1.67373668015595e-05,9.931779485820395e-06,1.4825983582511526e-05,5.647637400040632e-05,5.311029730137306e-06,1.637299409438242e-05,1.5440731412515638e-05,4.631240322557536e-06
0.8723076923076906,8.830968211981372e-06,3.763319866341893e-06,6.225108722427801e-06,9.197439010222296e-06,1.8964866108698666e-05,1.059128712531295e-05,9.943668793492103e-06,7.2661936527633e-05,6.785305553336229e-06,1.3842666801148577e-05,1.6476501107594763e-05,5.7012792166707035e-06
0.9346153846153827,1.172147200373767e-05,3.714363852698928e-06,1.061086950973807e-05,5.526436263162774e-06,3.253757530880345e-05,1.1127705335430467e-05,1.7022710508266907e-05,6.264972932233567e-05,6.236298669174782e-06,1.1340314364124045e-05,1.6756949206353512e-05,5.743241526090514e-06
0.9969230769230749,1.5235116042096782e-05,3.704572658117892e-06,1.0999720247184542e-05,6.06005697013264e-06,0.00020307939768737053,1.020453447964087e-05,1.886765342031064e-05,5.933750415418141e-05,6.3104321071705275e-06,1.1313738242553958e-05,1.596945654990615e-05,5.193535258030124e-06
1.0592307692307672,1.9146003344398346e-05,3.6318379793935187e-06,8.491772863550295e-06,8.577096199028726e-06,0.00030205729755484377,9.647834508067869e-06,9.300946084304466e-06,3.453008560564778e-05,7.126599043516535e-06,1.2085844764205452e-05,1.5929592383419806e-05,7.058060580078518e-06
1.1215384615384594,1.9179573257825192e-05,3.6779965152315224e-06,8.263777654822965e-06,9.214923329636803e-06,0.000259155031634369,9.465997839441798e-06,5.960046818387355e-06,2.1769347149576864e-05,6.03487960143904e-06,1.225299460353805e-05,1.6606584300404847e-05,8.563108765476576e-06
1.1838461538461515,1.1911001779907337e-05,3.699677040458482e-06,5.945360007094299e-06,6.831464130148864e-06,0.00025236203338702503,1.0810190516963303e-05,1.0129002324295774e-05,2.0107639663062098e-05,5.374672586337207e-06,1.1883726228489877e-05,1.6196752386103224e-05,8.715571824543153e-06
1.2461538461538437,8.908598485390939e-06,3.667505928698726e-06,6.18454515191047e-06,5.802688143082454e-06,0.0001656189444221449,1.0805994284387073e-05,1.7094046425114583e-05,2.2253312477478932e-05,5.273263650451554e-06,1.1308143205705316e-05,1.5917703038799876e-05,1.248798352880461e-05
1.308461538461536,2.125460948387096e-05,3.684990224428475e-06,6.018094637264918e-06,5.618753337680952e-06,6.954763345419223e-05,1.1503267994091477e-05,1.9750260624581035e-05,2.4432555123136504e-05,5.568398559319121e-06,1.17802192235672e-05,1.6338724879005895e-05,1.938169169335424e-05
1.370769230769228,3.374748859883425e-05,3.6696040505527585e-06,5.8145774344116795e-06,5.643930717980084e-06,3.9181607679476356e-05,1.1262684083845897e-05,1.4621067605228669e-05,2.4001742004505408e-05,6.127896027881737e-06,1.2071857300810506e-05,1.636460160009771e-05,2.0087357846657975e-05
1.4330769230769203,3.08276112768624e-05,3.654217866255749e-06,5.7887006865560885e-06,5.502657608265812e-06,8.877266603496044e-05,8.565206890883321e-06,8.045573649203182e-06,1.7038096647562876e-05,6.245390500699462e-06,1.1587192619562832e-05,1.625200274730787e-05,1.3113921288976372e-05
1.4953846153846124,1.9074667519684378e-05,3.678695887288086e-06,5.7838050897392655e-06,5.31242847164511e-06,0.00010043119460192428,9.529640641403602e-06,1.1810292232894425e-05,1.0808092379951025e-05,5.449505365836179e-06,1.1731962572033201e-05,1.48658477655772e-05,7.4895730098963515e-06
1.5576923076923046,1.095915666885124e-05,3.6954808232773453e-06,5.9103913966869944e-06,8.635144050828103e-06,9.878417376730416e-05,1.051855245700987e-05,1.2584496832819999e-05,1.4397967994265552e-05,5.2984410475668636e-06,1.1529844098845387e-05,1.6530352742923544e-05,5.348795820244353e-06
1.6199999999999968,8.018298141602523e-06,3.6451260380469344e-06,5.679598690022658e-06,1.0903206934168945e-05,0.00010630521857493135,9.84575676857465e-06,9.004412405744233e-06,7.129536341471029e-05,6.550316628306519e-06,1.1529844115898413e-05,1.631354747739048e-05,4.458495485692993e-06
1.682307692307689,6.895806333062637e-06,3.628341102057675e-06,6.337707579717744e-06,7.666514098521779e-06,7.683089204491012e-05,9.593982903292424e-06,8.68899570818371e-06,0.00014176686709982771,8.005709423268096e-06,1.104098323831219e-05,1.528617023609513e-05,4.154968119015242e-06
1.7446153846153811,7.32592000147747e-06,3.6360341937324847e-06,8.699486261794694e-06,5.751634020612073e-06,5.6975725469735984e-05,1.1089239904530739e-05,7.345502402955617e-06,9.148063366074174e-05,6.226507481462325e-06,1.1435428939184552e-05,1.619045808070041e-05,4.121398252247369e-06
1.8069230769230733,6.721662743321607e-06,3.612255552335834e-06,8.648432129376715e-06,6.7335520663884076e-06,3.317610179867832e-05,1.009053689481713e-05,8.912095318909982e-06,1.3999326075264662e-05,4.868327368967584e-06,1.1983037062416694e-05,1.593099110929567e-05,4.7172630376716524e-06
1.8692307692307655,6.571997158744125e-06,3.6535184923044046e-06,5.968439273592215e-06,7.0713486437057325e-06,2.0062180546176478e-05,9.49397270725664e-06,1.2987335028687614e-05,1.2324330530570175e-05,5.980328595711626e-06,1.1863444497114036e-05,1.6284173841540906e-05,4.431919334990652e-06
1.9315384615384577,1.0535337340418967e-05,3.746534955932172e-06,5.074642070468371e-06,5.704776077900912e-06,1.7641654615137744e-05,1.0149983494519195e-05,1.692130159796079e-05,1.5726774537701735e-05,6.1852445514413525e-06,1.2085145389306717e-05,1.685556061493306e-05,4.050062324504703e-06
1.9938461538461498,1.2069759149824221e-05,3.7388418718364845e-06,5.757228978353623e-06,5.466290272693186e-06,1.891660944319066e-05,1.0307342162008126e-05,1.763396148461993e-05,1.911453170203951e-05,5.122199352077435e-06,1.195366348696325e-05,1.7000330578772113e-05,4.091325263762731e-06
2.0561538461538422,1.0845858472900242e-05,3.559802672725709e-06,6.683197284000167e-06,5.3837643982035385e-06,1.7493387716408885e-05,1.0153480356933642e-05,1.9051588251528527e-05,1.895297681357988e-05,5.290747963471176e-06,1.3321634792144248e-05,1.6756949223643382e-05,4.461292959708393e-06
2.1184615384615344,9.952061272381722e-06,3.6087586977373575e-06,6.03278147934816e-06,9.48418149349095e-06,1.6489089780691302e-05,9.697489899688586e-06,1.4886129604244994e-05,9.415153496566594e-05,6.168459613320465e-06,1.2813191451973201e-05,1.599883014620218e-05,4.531929517762971e-06
2.1807692307692266,7.816879029339436e-06,3.85843444424457e-06,1.0156277802527332e-05,9.784911400364156e-06,2.38583708759658e-05,1.0803196766081176e-05,8.731657388949542e-06,0.00011775953069677787,5.761425193876827e-06,1.202849623827736e-05,1.5899519332644256e-05,4.360583425248402e-06
2.2430769230769187,1.154453089284857e-05,3.7724117134985137e-06,1.6414256974191708e-05,6.522341766176017e-06,7.2218534494084e-05,1.1484384949274802e-05,1.3413951823556165e-05,7.491181571571323e-05,5.229203223440966e-06,1.2601981129970833e-05,1.634991479875225e-05,6.686694161336011e-06
2.305384615384611,1.5595292588462446e-05,3.6940820772694374e-06,1.213060449908691e-05,8.622555353809958e-06,0.00023507635791588654,1.0633249437338084e-05,1.2740456764011773e-05,6.140554673640016e-05,6.873426406410014e-06,1.2338317939963873e-05,1.569879960925391e-05,7.597276299738572e-06
2.367692307692303,1.9269792237963655e-05,3.740939986111395e-06,6.5887820914175185e-06,8.222514696853978e-06,0.0002839211865101277,9.839462400170381e-06,8.386167700535906e-06,2.75517535150982e-05,6.463594511529891e-06,1.2559319484021596e-05,1.5877139455255927e-05,8.397357660072658e-06
2.4299999999999953,1.969431093584717e-05,3.7101676203595464e-06,6.2915490540641866e-06,5.875422834122901e-06,0.00023268730504308148,1.0006612272424794e-05,5.974733606706195e-06,1.8316548440111548e-05,5.3124284877507455e-06,1.2978243222268777e-05,1.619675239415604e-05,9.084840183011996e-06
2.4923076923076875,1.3478993464133282e-05,3.709468251145154e-06,5.849546045766374e-06,5.664911886071877e-06,0.00022935689621922012,1.0433928447639574e-05,9.679306253455404e-06,2.0884641764477388e-05,5.293545450039498e-06,1.2287263845678354e-05,1.5417652175149973e-05,1.2553724511832342e-05
2.5546153846153796,1.5035795137426551e-05,3.670303412188029e-06,6.235599288354858e-06,5.690788649559408e-06,0.00012122002224662272,9.984232359983025e-06,1.562676435161355e-05,2.5460631687697816e-05,5.032679752995743e-06,1.132213069752197e-05,1.6382085935144156e-05,2.028038453213791e-05
2.616923076923072,2.1742071613791343e-05,3.6898858259822492e-06,5.569797302721705e-06,7.242694773168523e-06,4.4558378431721245e-05,1.1042381975793584e-05,1.822632944457799e-05,2.6298479224351467e-05,5.895704600789031e-06,1.1659227936888783e-05,1.590371561140576e-05,2.1737176043027753e-05
2.679230769230764,2.886447444225837e-05,3.73604438361023e-06,5.728554701297147e-06,6.832163515942587e-06,6.53157345264314e-05,1.1864143877697112e-05,1.4387477447049454e-05,2.4534663479632477e-05,5.871226585204188e-06,1.1724968896231758e-05,1.6070865510187104e-05,1.887884337511044e-05
2.741538461538456,2.880502784397739e-05,3.720658203102782e-06,5.947458085842072e-06,6.794397403098173e-06,8.179643191326136e-05,1.0591287116075895e-05,1.2148788193163302e-05,1.6070865447896192e-05,6.107614250794313e-06,1.1766931187414306e-05,1.7470308546307933e-05,1.3313242307096592e-05
2.8038461538461483,2.0602794931079414e-05,3.7171613333460604e-06,5.940464398435097e-06,7.609165577804333e-06,7.444113827024997e-05,1.0494074427687868e-05,1.625829712423865e-05,9.072950818970564e-06,6.0929274361853915e-06,1.1732661943142374e-05,1.5298059605820905e-05,6.63074438615278e-06
2.8661538461538405,1.1339614980935645e-05,3.7318481361126034e-06,5.876122186994811e-06,1.0095432476002012e-05,7.54244552292486e-05,1.0021998454827022e-05,1.3371290189923003e-05,1.6850665044880012e-05,6.103418030534158e-06,1.1176661316388465e-05,1.560228633105491e-05,4.523537039583895e-06
2.9284615384615327,6.374074940396213e-06,3.7577249107319707e-06,6.048167651565942e-06,1.1352903048826117e-05,6.237627485650895e-05,9.87163350103515e-06,9.367386409545967e-06,7.979552956645837e-05,6.8713282881086945e-06,1.1613768738290749e-05,1.665693904916073e-05,4.76062409712578e-06
2.990769230769225,7.332913718727241e-06,3.7108669933635003e-06,7.264375281342458e-06,7.78680604369697e-06,3.3804137705099416e-05,1.0623458215519577e-05,8.563808169033867e-06,0.00013626141290240906,8.126001385259466e-06,1.1264082807353286e-05,1.5485491200214104e-05,4.645927120587127e-06
3.053076923076917,7.0762442473911355e-06,3.699677039511092e-06,9.334515897781633e-06,7.804290326873797e-06,2.57173012151668e-05,1.048498258408396e-05,7.504259824978969e-06,7.780231934120251e-05,6.641234993291315e-06,1.1641044250865207e-05,1.6175071786506122e-05,4.291345594017079e-06
3.115384615384609,6.488771909355743e-06,3.6598128379713066e-06,8.740049820943341e-06,7.837160803821537e-06,1.9463518222314253e-05,1.0101726812668707e-05,8.922585913732444e-06,1.4072760090518461e-05,5.001208023950691e-06,1.2975445735937305e-05,1.6277879475978806e-05,4.5095496098213065e-06
3.1776923076923014,7.67630527391816e-06,3.6689046680749016e-06,5.464891520053546e-06,6.304137738055715e-06,1.4693802301006069e-05,9.900307728116785e-06,1.612122019617838e-05,1.4225922539878865e-05,6.1285954354654375e-06,1.3036291096805523e-05,1.569320465624931e-05,5.463492798440939e-06
3.2399999999999936,9.862541641325607e-06,3.724155052964306e-06,5.483774566291307e-06,5.238994434364486e-06,1.4930189987201933e-05,1.0526245528315788e-05,2.2251913683864662e-05,2.001672135492072e-05,6.120202955391581e-06,1.2105427159999257e-05,1.7134610011263855e-05,5.361384508499138e-06
3.3023076923076857,1.0594783965226877e-05,3.706670762918899e-06,6.327916379689213e-06,4.500457780428254e-06,1.8905419447416232e-05,9.968146790839683e-06,2.976806274427683e-05,2.6662851893632934e-05,6.538427287949844e-06,1.2614569856831773e-05,2.0741270580752296e-05,4.133986942396935e-06
3.364615384615378,1.0666819241578196e-05,3.552109587682632e-06,5.962844277481357e-06,7.397955336330142e-06,1.833683016627674e-05,1.0329722032291026e-05,2.6723697149340828e-05,3.19703847992514e-05,5.969837992125804e-06,1.378951453384995e-05,1.9296368368533952e-05,5.566999824679897e-06
3.42692307692307,8.998817422186297e-06,3.525533456164946e-06,5.6781999290933525e-06,1.1624259339271249e-05,1.7437437999727005e-05,1.0620660754057099e-05,1.4137102304564072e-05,9.548663583037372e-05,5.94116376078091e-06,1.3206238400916467e-05,1.634012360251328e-05,7.4692912304404524e-06
3.4892307692307623,6.337008221635187e-06,3.7234556856446942e-06,1.2601981115049436e-05,1.0156977174820743e-05,2.8218254854076956e-05,1.035489946801249e-05,1.0767528788827955e-05,0.00012754234392507632,6.999313344617046e-06,1.2903410432822208e-05,1.66709264808181e-05,6.365682471927888e-06
3.5515384615384544,1.3290163038467047e-05,3.736743760403745e-06,1.1967650873856428e-05,1.1039584425986958e-05,0.00010199638889479464,1.0427634096998872e-05,1.7615078363538335e-05,0.0001170832380393468,6.712570908244212e-06,1.2334121737704133e-05,1.70339004540665e-05,5.10751251236267e-06
3.6138461538461466,2.104759541718219e-05,3.646524795423526e-06,5.418733002452806e-06,1.707656220517606e-05,0.00020915623929506448,1.057799902402697e-05,1.8305358403599332e-05,9.860583418183447e-05,6.8314641114379055e-06,1.164244299237301e-05,1.5573612065130266e-05,9.43802292425744e-06
3.6761538461538388,2.6407581147698998e-05,3.601764985698234e-06,6.165662125567906e-06,2.0224434845298826e-05,0.0003283389914805923,1.067730985463792e-05,8.52464336536703e-06,3.7682854010985996e-05,6.346799418111005e-06,1.3183159159761241e-05,1.5730970744698425e-05,1.2629955965574407e-05
3.738461538461531,2.2729584724364334e-05,3.5856794217655382e-06,5.682396192933462e-06,1.336779327919165e-05,0.00044640414813178116,9.80029756476597e-06,8.158172494650747e-06,1.6941583394706563e-05,5.390758137243287e-06,1.254253451439998e-05,1.6787721582052956e-05,1.1457808803783109e-05
3.800769230769223,1.0052770799499436e-05,3.5688944905132304e-06,5.7579283433047595e-06,5.133389280587153e-06,0.00035331286089454277,1.0284962241750388e-05,1.8844574138417633e-05,2.18127082374527e-05,5.299140436202757e-06,1.1488581157929427e-05,1.5679217242118663e-05,1.7411561282898448e-05
3.8630769230769153,1.7162584820577347e-05,3.5507108227269176e-06,5.7733145259438364e-06,5.05715776123831e-06,0.00015334077202666663,1.030454464962342e-05,1.9932097320918273e-05,2.458711627516171e-05,5.639734515957192e-06,1.191729615091693e-05,1.5860354529687963e-05,2.4523473445015043e-05
3.9253846153846075,2.563337653735213e-05,3.5786856936207792e-06,5.938366274212588e-06,5.760725823951892e-06,0.00012318176006284414,1.0254189887130375e-05,1.219634544421903e-05,2.9709315571816813e-05,5.829264281231872e-06,1.1501169913685771e-05,1.5747755648239565e-05,2.571100688560553e-05
3.9876923076922997,2.78461890812783e-05,3.626242984940594e-06,5.925078201585165e-06,4.894204121086432e-06,0.0001153445993222609,1.0096131873874962e-05,1.1026995772548769e-05,2.2541453660807064e-05,6.017395291972131e-06,1.1756440616276601e-05,1.6776531616831865e-05,1.8563426733919643e-05
4.049999999999992,2.7912629321017827e-05,3.6647084442620326e-06,5.434119187460359e-06,4.501157161485026e-06,8.117469024142565e-05,1.0077948204193869e-05,1.2909704762146628e-05,1.0792006849887532e-05,6.0152971630126706e-06,1.2045980541586232e-05,1.577433175962521e-05,8.327420476916814e-06
4.1123076923076844,1.7738867222997592e-05,3.698977669349309e-06,6.077541292863012e-06,5.83765673667358e-06,0.0001187652271759987,1.044022280656994e-05,1.060247706234918e-05,9.648533883440298e-06,5.650924453230269e-06,1.172776633590426e-05,1.4979845376217327e-05,4.83056130609801e-06
4.174615384615376,9.868136630331036e-06,3.6388316885904713e-06,6.029983994911466e-06,9.529640657035543e-06,0.00010935238179475467,9.566707365375275e-06,7.016098276816744e-06,2.3770249998733562e-05,5.662813791692164e-06,1.1824979051766604e-05,1.649888097100908e-05,4.897001627076255e-06
4.236923076923069,7.934373489130545e-06,3.6199486506423757e-06,5.4089417950820005e-06,8.90230411888145e-06,5.619452718714039e-05,1.0166069018187802e-05,8.242796495257683e-06,0.00011917715713186302,6.5768927884827615e-06,1.1729165111991808e-05,1.6861854936678357e-05,5.025686029824783e-06
4.2992307692307605,7.0105033001273876e-06,3.6269423636288898e-06,7.60287125771697e-06,4.747336037288126e-06,3.668205281925907e-05,1.0184952076031096e-05,9.322626626584451e-06,0.00012950897719174275,6.990221533934952e-06,1.110742352921079e-05,1.6349914814857888e-05,4.854339920020342e-06
4.361538461538453,6.481078806549098e-06,3.609458060320018e-06,8.333714836084028e-06,5.262773075761137e-06,2.4179382485793136e-05,1.0409450435844292e-05,7.825271492833962e-06,3.619319184219686e-05,6.27686224182374e-06,1.1768329932948519e-05,1.5682014714002433e-05,4.480175991261603e-06
4.423846153846145,6.8202741571118015e-06,3.633936075668013e-06,6.9097937758518435e-06,6.607665105444009e-06,2.2623979524638572e-05,1.0795503687196136e-05,8.032984926842345e-06,1.117456320566627e-05,5.922980088968188e-06,1.150816362619859e-05,1.6180666832118126e-05,4.8809160626698635e-06
4.4861538461538375,6.793698036489104e-06,3.614353660926402e-06,6.9181862234775815e-06,5.681696800981702e-06,2.1621779677142664e-05,1.0258386122548776e-05,9.648533900730172e-06,1.376084024518794e-05,5.6201520851099454e-06,1.1752943753625308e-05,1.6455519973609018e-05,5.038974101504815e-06
4.548461538461529,9.09253326734453e-06,3.654217866255749e-06,5.995714757508116e-06,5.201927724840516e-06,1.76990030612482e-05,1.0619261998575287e-05,1.3997227987042985e-05,1.4546934202286366e-05,5.831362372058871e-06,1.2529246491510549e-05,1.7103138278429243e-05,4.584382417268292e-06
4.610769230769222,1.0828374162722791e-05,3.7087688762464194e-06,5.66421251638379e-06,5.029182883002173e-06,1.8317947124539083e-05,9.973042412999197e-06,2.048320234280254e-05,9.607970321212634e-06,5.944660613247758e-06,1.3168472363389584e-05,1.9584509571046736e-05,4.752931028188338e-06
4.673076923076914,1.045211210618883e-05,3.6178505297357334e-06,8.014801255266471e-06,7.553915211152192e-06,1.4772131973709672e-05,9.572302324064215e-06,2.4846583178591195e-05,2.2798123055404555e-05,5.301937898849473e-06,1.4907810095129056e-05,1.9224333069445265e-05,5.119401858166839e-06
4.735384615384606,1.0411548534487263e-05,3.6269423759449635e-06,7.232204172188025e-06,8.132295720268227e-06,1.3618867820971066e-05,1.043043158688306e-05,1.745981788398391e-05,9.171492294418234e-05,5.618053971782425e-06,1.5619071271307423e-05,1.7759149057638977e-05,5.49496453624935e-06
4.797692307692298,7.95045902582577e-06,3.777307335894875e-06,9.698189335693997e-06,6.8769232823247725e-06,2.138049635883969e-05,1.0189148328028827e-05,1.0801798016757402e-05,8.860062025917159e-05,6.096424327495242e-06,1.436020197900234e-05,1.7391978838077192e-05,5.664911892466762e-06
4.8599999999999905,1.108993922495453e-05,3.7549274262952774e-06,1.1702589004869423e-05,7.538529025197249e-06,5.04715671245511e-05,1.0303145947432312e-05,1.7158388633002157e-05,4.7744017176635604e-05,5.802688162267107e-06,1.2773327219406383e-05,1.6775832250459644e-05,5.568398584424964e-06
4.922307692307682,1.8061277712651722e-05,3.6045624644505855e-06,7.757432416610755e-06,1.111861345464149e-05,0.00031122746145300083,1.2878932400658035e-05,1.3525151960891434e-05,5.303616383992941e-05,6.623051303715026e-06,1.2071157903411251e-05,1.505607691806669e-05,6.807685489699604e-06
4.984615384615375,2.0455227478066718e-05,3.6255436195157624e-06,6.600671395062818e-06,1.3841967429802556e-05,0.0004934313095835327,1.1329124426377272e-05,6.352394418721966e-06,3.5286106596998935e-05,6.92098368683484e-06,1.200541699854322e-05,1.5705793341661926e-05,8.974339438812725e-06
5.046923076923067,1.6920602226614772e-05,3.6332367064536206e-06,5.992917269281861e-06,1.1969049599495445e-05,0.0003234594751920857,8.937272744210152e-06,5.876122193389695e-06,2.107626961465788e-05,5.3732738178287795e-06,1.1718674537538239e-05,1.7119223825072063e-05,1.3390173152079872e-05
5.109230769230759,1.3108326338340249e-05,3.55700516934121e-06,5.686592411772533e-06,8.996719266699908e-06,0.00018433343526519746,1.0576600306203925e-05,9.373680763739381e-06,1.6200249191911098e-05,5.433419799771854e-06,1.1559217743458323e-05,1.5698799616833035e-05,2.1007031762820815e-05
5.171538461538451,1.3817489369453521e-05,3.609458063162189e-06,5.7859032141986216e-06,5.410340543221537e-06,0.0001056366189056727,1.021922131011858e-05,1.2757241700948422e-05,2.4188474310686084e-05,6.323720146876136e-06,1.169489590087854e-05,1.5488988090813412e-05,2.35023904657794e-05
5.233846153846144,2.405419498785477e-05,3.6395310559100837e-06,5.840454214478541e-06,7.883319335159438e-06,9.527612459763191e-05,9.45550727067257e-06,1.3606978472087879e-05,2.6779646968104014e-05,6.462195777364362e-06,1.1592787613068367e-05,1.6570916332151835e-05,2.644744539329243e-05
5.296153846153835,3.562250457515385e-05,3.6591134734938654e-06,6.419534104651347e-06,9.003713017345187e-06,0.00013420106254760829,1.0674512400991413e-05,1.3693700590285591e-05,1.758920169644777e-05,6.027885868794177e-06,1.1729165085938576e-05,1.7831184309121302e-05,2.0139111497978017e-05
5.358461538461528,3.556305790439751e-05,3.7227563192724725e-06,5.2054245979131036e-06,7.14338395061039e-06,0.00012228306752462003,1.1165471401615907e-05,1.7964065063817238e-05,1.1856450756653203e-05,5.7075735801011735e-06,1.1973245843440358e-05,1.5405063409446028e-05,6.950357324579196e-06
5.42076923076922,2.2441443454823685e-05,3.7388418689943137e-06,5.166259758955978e-06,1.0395463030477004e-05,0.00013459341079311571,1.0877330188918677e-05,1.765913888173524e-05,1.0572404038574253e-05,6.41743600577153e-06,1.1250095366695708e-05,1.458050405223806e-05,5.156468543295508e-06
5.483076923076912,8.325322343457249e-06,3.717860703507843e-06,6.699982199857383e-06,1.2473996115384504e-05,0.00012501061750687845,9.747844702919413e-06,1.0805994228017349e-05,4.8363660581192866e-05,6.046069534685709e-06,1.1926387926071886e-05,1.621913228717631e-05,5.1256961844122395e-06
5.545384615384604,7.423832025921228e-06,3.654917226943629e-06,5.587980989218977e-06,1.2287963129864466e-05,6.123280170295212e-05,9.075748389382928e-06,8.92888027242596e-06,0.00012036469060561217,6.74124512158869e-06,1.1387172224649096e-05,1.609884034650122e-05,4.858536160412541e-06
5.607692307692297,7.3573916942848426e-06,3.603163714653116e-06,8.675008259473316e-06,1.1571806398791295e-05,3.274039314386338e-05,9.862541697458482e-06,1.0403855475734265e-05,9.797010506176206e-05,7.439917601696304e-06,1.1413049007558129e-05,1.6469507405266388e-05,5.155069828077785e-06
5.669999999999988,6.459398268295521e-06,3.6717021705120106e-06,8.917690288730759e-06,8.930978375332187e-06,2.6164199765806492e-05,1.0884323903799972e-05,1.2911802850131456e-05,2.525781390687598e-05,5.929274450030183e-06,1.497704790385986e-05,1.631564562198188e-05,5.191437155123897e-06
5.732307692307681,7.300043235858311e-06,3.6416291730271646e-06,6.2335011963436195e-06,6.1817476688948625e-06,1.7270987541924872e-05,1.0693395386833042e-05,1.5925396085236797e-05,1.2621563562949708e-05,6.694387230273454e-06,1.4123114889486032e-05,1.6196752430630567e-05,4.916584023817449e-06
5.794615384615373,1.0754240759069943e-05,3.6654078182133768e-06,6.327916391531593e-06,5.55720861944072e-06,1.7222730873101e-05,9.596080994829966e-06,2.2830993619512203e-05,1.928308028027459e-05,6.444012093235566e-06,1.2631354771267903e-05,1.65205615980805e-05,4.7858014923463085e-06
5.856923076923065,1.2097734087272253e-05,3.737443123933796e-06,5.83415987662761e-06,5.5663004339123745e-06,2.1737875379320333e-05,1.0159075316096278e-05,3.1011545929970906e-05,2.348210876045679e-05,5.201228339757335e-06,1.4256694927657538e-05,1.9881043173578897e-05,4.902596584580958e-06
5.919230769230757,9.583492299943449e-06,3.5891762896274788e-06,5.471885273540996e-06,5.467689013727295e-06,2.633624518774506e-05,1.0191945784517506e-05,2.2516276252796767e-05,3.548472826082616e-05,5.739744671018343e-06,1.5202245639045486e-05,1.8546641693717448e-05,4.853640552937577e-06
5.98153846153845,1.0209430042825337e-05,3.5877775426721806e-06,5.52154067818833e-06,7.892411184921381e-06,1.883128605584261e-05,1.0180056474714168e-05,1.073256025776459e-05,0.00011174423354016009,5.867030347417313e-06,1.3357302709238184e-05,1.5333028189464435e-05,4.9641413080318365e-06
6.043846153846141,1.1915897359907983e-05,3.8003865758658622e-06,8.828170692017542e-06,7.728758170107616e-06,2.5845985666942777e-05,9.928981991199255e-06,1.2532043966473338e-05,0.0001276129805061051,5.736247804340641e-06,1.2510363398850663e-05,1.7058378485046433e-05,6.134190381364609e-06
6.106153846153834,1.7236718339338115e-05,3.7989878383844675e-06,8.156074353138365e-06,8.982731913912783e-06,5.89178811824335e-05,1.0359095656298222e-05,1.9204750652098333e-05,8.705221125614079e-05,5.680298055447489e-06,1.2634152249309712e-05,1.6655540315468896e-05,8.898807249124729e-06
6.168461538461526,2.095178154940906e-05,3.6947814379573176e-06,8.216919708559089e-06,1.576174311945048e-05,0.0002131804250524283,1.0637445637229348e-05,1.3853157372759976e-05,7.028267326537237e-05,7.175555035843217e-06,1.2986635678421028e-05,1.4721777205295439e-05,9.995422288492743e-06
6.230769230769218,1.9369802403209253e-05,3.7003764210415585e-06,8.445614296211565e-06,1.43231352128718e-05,0.0003449854400201957,1.0355598807384088e-05,5.04317032579138e-06,3.3076091573036595e-05,8.336512300625524e-06,1.3981841755613307e-05,1.5836575922397363e-05,1.0033188384047282e-05
6.29307692307691,1.4094440622377154e-05,3.7164619707633997e-06,6.404147911827825e-06,7.396556565926934e-06,0.0003665393808934899,9.968146819024544e-06,6.925879289572852e-06,2.400733707759173e-05,6.634940622044875e-06,1.2505467807007637e-05,1.737589337930482e-05,1.436579690855903e-05
6.355384615384603,1.3278973061640425e-05,3.7241550501221354e-06,6.228605576078887e-06,5.594974711205699e-06,0.000303186783204031,9.718471060674953e-06,8.464497310238055e-06,2.599145497583777e-05,5.167658504016496e-06,1.1745950012217084e-05,1.5640052419977717e-05,2.0491594815534122e-05
6.4176923076922945,2.391501990715028e-05,3.725553798972214e-06,5.5040563654055555e-06,4.916584023580602e-06,0.00013847912072719736,1.0188448927076858e-05,1.1816586538297239e-05,2.5744576642002434e-05,5.511749475554476e-06,1.1782317344000148e-05,1.471268530697974e-05,2.3268800388365206e-05
6.479999999999987,2.7986762768487474e-05,3.6786958882354764e-06,5.971936127243301e-06,5.660016284518102e-06,0.00012132352958265832,9.80169630366845e-06,1.2613870447826988e-05,2.083148952252145e-05,6.563604717039576e-06,1.1501169874842768e-05,1.5741461308493853e-05,2.1250413199188262e-05
6.542307692307679,3.606520686290082e-05,3.6710027975080567e-06,6.375473656324478e-06,7.293748887822933e-06,0.00015591516007826083,1.0509460598484565e-05,1.1895615612663353e-05,1.591350679911822e-05,6.782508089031581e-06,1.1471796276888806e-05,1.6960466434549442e-05,1.370349171831246e-05
6.6046153846153715,3.5747692033064976e-05,3.6968795541270082e-06,6.674105441580499e-06,6.312530207945125e-06,0.00012802071441768702,1.0531840516847523e-05,1.7577312438277203e-05,1.0822779176796378e-05,5.99781289191507e-06,1.1596284460324569e-05,1.581069916483102e-05,6.679700438401899e-06
6.666923076923063,1.939497977521872e-05,3.6661071959542824e-06,5.700579865930422e-06,6.886015109823044e-06,0.00014198087567933725,1.0107321841701378e-05,1.5533747909065217e-05,1.3949670674406888e-05,5.258576855974676e-06,1.1634050537404998e-05,1.5461013259709943e-05,5.1893390567177755e-06
6.729230769230756,1.0356298157650674e-05,3.7171613456621346e-06,5.173253493495622e-06,7.844154510176319e-06,0.0001439076452214749,9.982833630791295e-06,8.399455788558422e-06,6.418275205983074e-05,6.2342005527682435e-06,1.2861448091191126e-05,1.625200275109743e-05,5.35998577812317e-06
6.7915384615384475,7.4581012685352255e-06,3.71856008409092e-06,8.209226626831878e-06,8.874329227618697e-06,7.54342465993337e-05,1.0457707091641547e-05,8.440019330417196e-06,0.00013112242839999528,6.757330692153119e-06,1.2633452863279141e-05,1.585336077359519e-05,4.934068325468388e-06
6.85384615384614,7.2098242696938545e-06,3.7024745305795173e-06,9.31073727320116e-06,9.011406146205066e-06,4.349043755643341e-05,1.0427634104341147e-05,1.2471198611289461e-05,9.272551600219004e-05,5.4802777313511795e-06,1.164384176656578e-05,1.6074362315521283e-05,5.0473665647624935e-06
6.916153846153832,7.167861963589909e-06,3.696180180175664e-06,7.842755785010998e-06,7.0657537079910074e-06,5.534199262910988e-05,9.617062143973953e-06,1.546171260405534e-05,1.8652246912391016e-05,6.226507464172452e-06,1.1815187878265003e-05,1.5689008438120786e-05,5.240393201925523e-06
6.9784615384615245,8.530238309371422e-06,3.7052720140688204e-06,6.27056788526185e-06,5.764222695366546e-06,3.459442785095727e-05,1.035979503096011e-05,1.5127412887494528e-05,1.0894115111170776e-05,6.693687863664384e-06,1.2583098107891526e-05,1.5841471498845294e-05,4.913786558091715e-06
7.040769230769216,9.938073815855357e-06,3.7801048051733233e-06,5.627845186495506e-06,6.06565197382262e-06,2.21127387471635e-05,1.0610869532001744e-05,2.1176279853089377e-05,1.9483800068561172e-05,5.743241532011704e-06,1.2350207285057498e-05,1.6929694074955628e-05,4.238193349455817e-06
7.103076923076909,1.0391266759531466e-05,3.7619211335974494e-06,7.707777048911643e-06,6.409043554356231e-06,2.277924010343213e-05,9.793303858648035e-06,2.299464656208746e-05,2.7788141239426522e-05,5.7446402905725336e-06,1.1516556097745934e-05,1.7185664152445194e-05,4.564100612943397e-06
7.165384615384601,1.0959856078329722e-05,3.6703034150301997e-06,7.197235596123619e-06,5.371175731501884e-06,2.0928002877932766e-05,9.884222179816031e-06,1.4518959324760772e-05,2.1079067173227866e-05,5.795694452359612e-06,1.2490781042373555e-05,1.642544696262386e-05,5.434818557622142e-06
7.227692307692293,1.1178759490112118e-05,3.6304392229643176e-06,6.337707596297074e-06,9.070153354665915e-06,1.528826836031764e-05,1.0114315506607833e-05,9.065257762349195e-06,7.658751031769384e-05,6.029983999648417e-06,1.3227918946749166e-05,1.6228923488389076e-05,6.03627833157816e-06
7.289999999999985,1.0329022667813585e-05,3.808779037702455e-06,1.0845858424109641e-05,8.943567032323092e-06,2.5927812078663237e-05,1.0580097148723174e-05,9.974441150243744e-06,0.00011300030497333562,6.352394407826978e-06,1.3231415845164445e-05,1.680660463397506e-05,6.378271156629959e-06
7.3523076923076776,1.4289565373578246e-05,3.7689148475313533e-06,1.3494379561507231e-05,8.107118328600411e-06,9.535375478340787e-05,1.1001818374722917e-05,1.763815776030242e-05,8.699835958836388e-05,6.261476050658151e-06,1.111861351432708e-05,1.6822690207381658e-05,9.21702148630743e-06
7.41461538461537,2.0474110553673577e-05,3.6045624710823177e-06,1.118505377514604e-05,1.1661326022505136e-05,0.00019581781962898503,1.03339182800255e-05,1.4786818756107323e-05,7.788974079000846e-05,7.889613694326651e-06,1.1524948522871151e-05,1.4523854983394812e-05,1.1363393659754213e-05
7.476923076923062,2.2006434209013528e-05,3.705272007437088e-06,8.233704625600542e-06,1.0698990415392018e-05,0.00028470588275742635,9.759734001117218e-06,5.5537117397364e-06,4.1154535730451394e-05,7.335011831581066e-06,1.467282109904507e-05,1.5417652198834732e-05,1.174874748765357e-05
7.5392307692307545,1.7020612360833336e-05,3.6444266631482e-06,5.511050086918582e-06,8.807189590716765e-06,0.00028536189390493405,1.0211528197601183e-05,5.025686039061838e-06,1.9543246607156563e-05,5.212418311136465e-06,1.2336219783293245e-05,1.7001030040357062e-05,1.116617073767164e-05
7.601538461538446,1.0207331949393013e-05,3.5584039248230208e-06,5.366280121421596e-06,7.741346881810312e-06,0.00022948697903283724,1.093327993165379e-05,6.269169168859889e-06,2.394159610688007e-05,5.841153611167253e-06,1.0737455848186529e-05,1.5558925284153702e-05,1.5605783124783558e-05
7.663846153846139,1.4814793614921957e-05,3.631138588389149e-06,6.571997157796735e-06,5.304036033493276e-06,0.00014647503866337767,1.0149284114409813e-05,2.1618282890045748e-05,2.5071081584826515e-05,6.2286055888686555e-06,1.174734876817259e-05,1.6075061673366993e-05,2.270930283761648e-05
7.726153846153831,2.6406182466587325e-05,3.6388316857483005e-06,5.801988761788834e-06,7.141285825914186e-06,0.00010051651764465911,9.96045371811268e-06,2.3104448065443724e-05,2.533824161711588e-05,6.249586725222874e-06,1.1617265560441107e-05,1.5809999732615174e-05,2.2555441072332392e-05
7.788461538461523,3.2210269370125386e-05,3.628341110584188e-06,5.493565784557101e-06,9.006510515045344e-06,8.047322023022238e-05,9.72056918797648e-06,1.0074451341305727e-05,2.0907721088292418e-05,5.764922052975407e-06,1.178931107688186e-05,1.6272983901425658e-05,1.666323339506448e-05
7.850769230769215,3.559732710295786e-05,3.644426658411248e-06,5.443910388909975e-06,6.306235867962565e-06,6.963575439395223e-05,1.0482185110542257e-05,1.7682218109153305e-05,1.334891028553405e-05,6.109712367674547e-06,1.180609602447665e-05,1.5910709307339252e-05,9.20513213079251e-06
7.913076923076908,2.65663385839332e-05,3.607359954571621e-06,5.506154474706667e-06,7.744144348720283e-06,8.024172814297496e-05,1.1674614074289972e-05,1.886555525345557e-05,1.0187050197411433e-05,5.9089926551791905e-06,1.251805650734165e-05,1.5171473281346455e-05,5.636237656621764e-06
7.975384615384599,1.0761234481293513e-05,3.5793850893621007e-06,5.913188880413145e-06,1.0391966104350558e-05,0.00012164034507217517,9.905203330144255e-06,1.1040283847781514e-05,2.751538621884227e-05,5.597772182615775e-06,1.2601981100838582e-05,1.6569517614091942e-05,5.3411027430172455e-06
8.037692307692291,7.917588576115501e-06,3.5241347035253058e-06,7.586785686205151e-06,9.647135109721225e-06,0.00013527529833320766,9.466697185918823e-06,8.9463645740769e-06,0.00012460498214631835,6.620953192282286e-06,1.3096437009352257e-05,1.627018648377998e-05,5.4229292269762175e-06
8.099999999999984,8.460301109873096e-06,3.4737799268214076e-06,1.1003217099414542e-05,8.13859007943544e-06,6.0685193411558205e-05,1.0147885376454724e-05,7.007006454292271e-06,0.00013790703433921674,6.204127582284021e-06,1.1691398994173596e-05,1.6013516991127592e-05,4.809580133506112e-06
8.162307692307676,8.256783903940838e-06,3.5549070702245443e-06,8.858943056822e-06,7.507756676735274e-06,3.0238740085527144e-05,1.053323929127714e-05,6.897205067465014e-06,4.276518896138744e-05,6.2775616205120364e-06,1.0603176421852823e-05,1.7034599893387772e-05,5.111708759860297e-06
8.224615384615369,1.1704687082906654e-05,3.5430177414734013e-06,6.109013001776021e-06,7.709175746602643e-06,2.3995447788157282e-05,1.0278667929242147e-05,6.989522148614924e-06,1.3919597669816616e-05,7.072048034710102e-06,1.273626054540955e-05,1.5547735325327495e-05,7.688194585853125e-06
8.28692307692306,1.3630757130774403e-05,3.581483197005279e-06,6.794397406177192e-06,5.817374929980209e-06,2.99988555651017e-05,9.961852465541672e-06,9.205831505454398e-06,1.4399366757326485e-05,6.751036350275778e-06,1.3151687431426732e-05,1.4907110655570932e-05,7.434322620033147e-06
8.349230769230752,1.4963060483334326e-05,3.6779965123893512e-06,5.8957046045785924e-06,4.493464055125666e-06,3.2542470951331855e-05,1.035559878180455e-05,1.6640853491386073e-05,1.2313839957300842e-05,5.4956638964635355e-06,1.1941774153238308e-05,1.6897522917957986e-05,5.359286400145417e-06
8.411538461538445,1.4257394275081954e-05,3.680094631401213e-06,5.841852965697096e-06,6.1209023312377065e-06,2.5071781046411464e-05,1.0022697800593505e-05,2.6581724724650258e-05,1.149977114257202e-05,5.44111290660491e-06,1.2346011036138786e-05,1.756822049093406e-05,5.2145164185427955e-06
8.473846153846138,1.189002060636805e-05,3.554907074961496e-06,6.199931348760401e-06,5.901299574873065e-06,3.015201792374948e-05,1.0021299101007723e-05,2.0469214863775657e-05,1.766473388353044e-05,6.004107232134477e-06,1.323840949538635e-05,1.595826654631575e-05,4.720060517371394e-06
8.536153846153828,4.512277149615329e-05,3.563998907907262e-06,5.604765927576712e-06,5.9768317247706666e-06,2.7616095652405194e-05,1.0565410360404333e-05,1.0377978685482959e-05,6.012149988805504e-05,6.288751540258393e-06,1.2643244060702348e-05,1.526239158806675e-05,4.9319701991142516e-06
8.598461538461521,5.405514854549172e-05,3.764718624665875e-06,5.288649851564742e-06,8.404351354111364e-06,3.118638901279762e-05,1.0373782450301405e-05,1.0495473180327508e-05,7.990882722594961e-05,6.1628646110515694e-06,1.2342514182724547e-05,1.679541464506921e-05,5.6383357585806e-06
8.660769230769214,3.444196475944257e-05,3.727651905668002e-06,5.93486942956171e-06,1.1538935933449086e-05,9.539991350185536e-05,1.0012906578301303e-05,1.6793316508767474e-05,8.302592761992856e-05,6.306235864883547e-06,1.1347308092505651e-05,1.672687625126438e-05,6.297843393336204e-06
8.723076923076906,2.9442155540948533e-05,3.633236702664059e-06,6.239096173032976e-06,1.117806007163343e-05,0.00030829849224810836,1.0119910471691659e-05,1.4440629621503831e-05,6.534301014842943e-05,6.946860464296379e-06,1.1791409212946746e-05,1.4153887229184647e-05,6.054462003390882e-06
8.785384615384597,2.3262506034882334e-05,3.638132309902176e-06,5.827865531197555e-06,9.803095045413101e-06,0.0003327667153233923,1.018215459088386e-05,4.89909970961359e-06,2.6034116712499628e-05,6.595076423347261e-06,1.2734861817402058e-05,1.5229521090986964e-05,6.830764757855453e-06
8.84769230769229,1.835011826543109e-05,3.6395310502257417e-06,5.52853438477996e-06,9.513555113708586e-06,0.00028941125630694843,9.926184502973002e-06,6.363584342968428e-06,1.8885137770041638e-05,5.818773696593856e-06,1.189631498637785e-05,1.708565399288394e-05,8.393161446207386e-06
8.909999999999982,8.271470718076064e-06,3.5842806700732884e-06,5.74673837879421e-06,6.951756047849737e-06,0.0002920534831266271,1.030874088006802e-05,1.0777319984593229e-05,1.8064774563934332e-05,5.818074329037396e-06,1.1706785212102962e-05,1.6200249247807127e-05,1.3808397537455146e-05
8.972307692307675,1.2053673571206975e-05,3.5954706229783066e-06,6.232102456967444e-06,6.236998030099509e-06,0.00013913722932556993,1.0113616145683105e-05,1.8058480218030582e-05,2.833225245121677e-05,5.592177222268902e-06,1.113190157653321e-05,1.65009791430748e-05,2.51207369946845e-05
9.034615384615366,2.7884654552205273e-05,3.65631598337283e-06,6.043272086723542e-06,8.030886794330172e-06,6.781878628695874e-05,1.0157676606562898e-05,1.8399773673394292e-05,2.8570738249555915e-05,5.266969318521812e-06,1.105427131615026e-05,1.5477098776273125e-05,3.1382213033973964e-05
9.096923076923058,3.4701431939983725e-05,3.642328544136338e-06,5.690788659507007e-06,1.0880127647302136e-05,5.134298475321467e-05,1.0535337385420007e-05,1.0982935311668977e-05,1.754024569677881e-05,6.060756354031582e-06,1.1517255453933709e-05,1.63939752345262e-05,2.049229415987952e-05
9.159230769230751,2.99778744855909e-05,3.5863787815060277e-06,5.541822448170327e-06,1.089341572964031e-05,6.611441751616098e-05,1.0529742425073134e-05,1.0184252688342592e-05,9.898908991109085e-06,6.497164376876678e-06,1.1743152560939052e-05,1.5752651249319647e-05,7.508456044528581e-06
9.221538461538444,2.323383177156302e-05,3.5395208669797285e-06,7.416838337330015e-06,8.876427374104879e-06,8.352178230334555e-05,1.05724041318922e-05,8.44001932402231e-06,1.0135996024018824e-05,5.825767405080266e-06,1.191309989584018e-05,1.5142099658997192e-05,6.0754431435346605e-06
9.283846153846135,1.4065766368768588e-05,3.5304290463500366e-06,7.016098273974573e-06,9.661122559142163e-06,6.510941976737665e-05,9.38347195713618e-06,6.078240637445257e-06,2.4158401345175662e-05,5.199829609618215e-06,1.1880229406339519e-05,1.6596093714819442e-05,6.281757831298288e-06
9.346153846153827,9.820579343748174e-06,3.5549070702245443e-06,5.825068067366601e-06,7.993820098069667e-06,4.1397217745024285e-05,1.0016403458242469e-05,7.687495251692174e-06,9.402424887288892e-05,5.73694718160785e-06,1.1525647913875521e-05,1.549528241232186e-05,6.766422520125085e-06
9.40846153846152,7.730856283435136e-06,3.528330933969907e-06,8.521845856535037e-06,6.318125189845129e-06,4.596621393299453e-05,1.0352801318210444e-05,8.488276023873216e-06,0.00010393854395924033,6.152374053651026e-06,1.1538236633631034e-05,1.6324737422716377e-05,6.676902938570114e-06
9.470769230769212,6.9552529095536405e-06,3.484969874042084e-06,8.178454262737962e-06,7.5238422236149445e-06,5.750025410762305e-05,9.8205793558274e-06,7.40774653659552e-06,3.413354178386877e-05,5.561404866938347e-06,1.1258487871401713e-05,1.5796711717304865e-05,5.352992041925593e-06
9.533076923076903,7.253185332700695e-06,3.53882151008141e-06,6.376872428859315e-06,6.949657941390797e-06,4.05376896324583e-05,1.0190547072378801e-05,7.678403405482943e-06,1.5799509205767967e-05,5.585882892470787e-06,1.1543132181894104e-05,1.5493184329073983e-05,4.6627120407075985e-06
9.595384615384596,6.464293895665681e-06,3.580783818316983e-06,7.264375282053e-06,4.890707268382736e-06,2.9014839417366525e-05,1.0377978712009888e-05,1.3670621328998322e-05,1.3928689536394738e-05,5.845349846348805e-06,1.1711680812235652e-05,1.7218534639340534e-05,4.203924125315931e-06
9.657692307692288,7.07694362323726e-06,3.582182564324891e-06,6.3034383873154335e-06,4.494862806581068e-06,3.5077693974254015e-05,1.0116413628225019e-05,2.2633770775352484e-05,1.0778019384834655e-05,5.858637881080616e-06,1.1881628170347843e-05,1.7149996191771304e-05,4.685791322837455e-06
9.719999999999981,8.107118330258344e-06,3.6178505344726847e-06,5.349495186616574e-06,5.404745552084478e-06,2.3754863968624324e-05,9.720569187502784e-06,3.107868561021595e-05,1.0305244031153885e-05,6.683197262683885e-06,1.1873935093831278e-05,1.6959067653488092e-05,4.855039302971894e-06
9.782307692307672,1.1941774107289877e-05,3.5709926171042147e-06,5.594974682783989e-06,4.842450594348217e-06,1.2595686844463216e-05,1.02485949367311e-05,2.942467122011294e-05,1.0450013990729682e-05,6.376872420095955e-06,1.1306045159405661e-05,1.798994169348589e-05,4.69628190368591e-06
9.844615384615365,1.2176763054109566e-05,3.5737901005935178e-06,5.599870317733272e-06,7.322423115378266e-06,1.3262188172546985e-05,1.0642341275494497e-05,1.7349317162048312e-05,6.226017890327284e-05,5.729953463173842e-06,1.2162076251106176e-05,1.770319923129667e-05,5.312428496277259e-06
9.906923076923057,7.863736923259998e-06,3.7178606968761113e-06,5.580987275521921e-06,7.824572106566545e-06,1.5600887583389066e-05,1.0004514159807816e-05,7.443414488979746e-06,9.059103243155656e-05,5.677500583563718e-06,1.2600582399121171e-05,1.6529653345050594e-05,6.174753956382043e-06
9.96923076923075,1.0084242555545113e-05,3.578685714463366e-06,6.2321024403881134e-06,6.346799429479688e-06,2.7861575154967493e-05,1.0230411224180595e-05,1.302230355098762e-05,7.934863039030423e-05,5.51035072552016e-06,1.1607474404703073e-05,1.682129143508367e-05,8.94566518804633e-06
10.03153846153844,1.6815696481605378e-05,3.445105692397495e-06,7.423132680391594e-06,8.225312170869377e-06,0.00016811430270777806,1.0468897028204082e-05,1.8654344904452578e-05,6.77411562601075e-05,5.68659241295677e-06,1.1746649402510911e-05,1.6203046741717722e-05,1.1752244374463316e-05
10.093846153846133,2.296667171440466e-05,3.5996668676337626e-06,7.625950508109251e-06,1.4272081104612274e-05,0.0003758829888568016,9.873032242542952e-06,1.1606075604930765e-05,3.31418326759092e-05,6.553813482431299e-06,1.213410140129175e-05,1.5628862449072282e-05,1.3641247689596032e-05
10.156153846153826,1.8610983931447816e-05,3.592673147068126e-06,6.165662118225631e-06,1.5620470019683808e-05,0.00037405622975181056,1.0459105837412608e-05,5.452302869931221e-06,2.0473411188722444e-05,7.094427914230058e-06,1.2379580885853632e-05,1.5431639584069976e-05,1.5736565711440183e-05
10.218461538461519,1.045630837287111e-05,3.519239086813286e-06,5.810381231678244e-06,7.610564355312969e-06,0.0002627449078261179,1.0658426811479179e-05,6.982528438233733e-06,1.944463518318192e-05,6.188042016219697e-06,1.2184456138205253e-05,1.543513643203672e-05,2.0258703987252602e-05
10.28076923076921,9.39815875540262e-06,3.5374227564943794e-06,6.113908606171966e-06,4.167556803717313e-06,0.00015600048376427367,1.0554220415078438e-05,1.607156484908501e-05,2.0943389023149925e-05,5.892907097167684e-06,1.1240304184430746e-05,1.635201290165848e-05,2.816510261093678e-05
10.343076923076902,1.6808702697564588e-05,3.5674957473474932e-06,5.7285547363505884e-06,8.460301131426225e-06,6.82216247559116e-05,1.032762395472749e-05,1.4609178323373348e-05,2.2948488101566985e-05,6.453103950576633e-06,1.1334719388145232e-05,1.5423247108969918e-05,2.5375308375193602e-05
10.405384615384595,2.665515880740562e-05,3.6262429868353744e-06,6.085933736225495e-06,1.7024808670858722e-05,0.00010195162891051268,1.0037384613544495e-05,8.291752490189689e-06,1.5321838230401378e-05,5.591477861581021e-06,1.1648037951535646e-05,1.665973652412352e-05,1.4660232449159593e-05
10.467692307692287,2.912044459459177e-05,3.691983959204966e-06,5.730652829072369e-06,1.504838385362935e-05,0.00010373083105103357,1.0939574255530716e-05,1.2285865059880052e-05,1.3388774458178432e-05,5.565601096909253e-06,1.1933381654216645e-05,1.6355509770230963e-05,8.690394441638697e-06
10.529999999999978,1.9615281943667165e-05,3.66750594006741e-06,6.555911587469155e-06,9.156176075227525e-06,6.56787088511616e-05,1.0533938581384443e-05,9.249192549276586e-06,1.667931895449707e-05,6.264273555463736e-06,1.1803298516118351e-05,1.499802904897744e-05,5.719462882562236e-06
10.59230769230767,8.997418678546865e-06,3.5835813065432374e-06,6.036278319025238e-06,8.986228707167735e-06,0.00010134737169333145,9.349202710258926e-06,6.443312732547686e-06,2.6569136177082935e-05,5.399849973268071e-06,1.1118613497510903e-05,1.589602250267793e-05,5.185842180329322e-06
10.654615384615363,8.435123740942648e-06,3.570992612367263e-06,5.053660908297767e-06,6.971338473960031e-06,7.751277936923392e-05,1.0001716661397117e-05,7.898006161137043e-06,0.0001308147049670083,5.77611202103867e-06,1.1813789098861586e-05,1.627228458029132e-05,5.749535883836643e-06
10.716923076923056,7.641336692879955e-06,3.621347379597258e-06,8.023193719234694e-06,5.354390810907716e-06,3.2049413817484644e-05,1.0301047796682875e-05,7.068551176322065e-06,0.00014571342316737438,6.216716264143922e-06,1.1988632054501144e-05,1.6667429634035594e-05,5.345298959014144e-06
10.779230769230747,6.67550419019373e-06,3.6633096973067344e-06,7.681900257002402e-06,4.589977376904623e-06,3.016530609040539e-05,1.0149983486703225e-05,1.056191352996431e-05,3.8187800454399695e-05,5.670506859445368e-06,1.1450115728450783e-05,1.5790417305794334e-05,4.603265445742485e-06
10.84153846153844,7.167162607165286e-06,3.6143536647159636e-06,5.487271444574541e-06,5.607563391881362e-06,1.6870946797572136e-05,1.0208031364555836e-05,1.534002190410888e-05,7.513351645845508e-06,5.791498190414283e-06,1.2320833659392369e-05,1.5433737693371086e-05,5.304735411234181e-06
10.903846153846132,7.65672291009878e-06,3.6311385864943685e-06,6.335609492680306e-06,6.390859851042781e-06,1.4030098414726429e-05,9.793303856990102e-06,2.3068080626605554e-05,1.1635449256885977e-05,5.82227053082344e-06,1.1948767850356035e-05,1.619675236762911e-05,5.65092446388841e-06
10.966153846153825,8.547722627601691e-06,3.673100907993406e-06,5.4502047376558945e-06,6.596475160354961e-06,1.893269496662242e-05,1.0031789650829145e-05,2.6671943729894564e-05,2.0932199040638957e-05,5.9236794541561725e-06,1.1969748999973717e-05,1.702340987937608e-05,5.193535273425217e-06
11.028461538461517,1.0119910500350216e-05,3.629739851855144e-06,5.530632499765412e-06,7.209824248140724e-06,1.8226329406919223e-05,1.0365390008596858e-05,2.4073777413254524e-05,2.4861969457864082e-05,5.81597620268326e-06,1.2401261398290824e-05,1.8511673159101367e-05,5.138984266513565e-06
11.090769230769208,1.065702806855029e-05,3.7374431097229413e-06,6.799293003704557e-06,1.0197540748180245e-05,1.310413013110671e-05,1.002969150955361e-05,1.735701028143429e-05,5.400759167931331e-05,5.587980971218561e-06,1.3806998803526463e-05,1.772767736956856e-05,5.21521580031011e-06
11.1530769230769,9.080643948777833e-06,3.6535184941991855e-06,7.593080054135726e-06,9.447114789651323e-06,1.8360608849358565e-05,1.0324826399947066e-05,9.659723830660976e-06,7.24919893187348e-05,5.983126070437568e-06,1.3685308133422798e-05,1.7136708164618617e-05,5.330612163116181e-06
11.215384615384593,1.2742554868102236e-05,3.5653976605469023e-06,7.1112128516404026e-06,8.279863205729043e-06,2.751188927471541e-05,1.0362592494791063e-05,1.733183286560802e-05,9.48229316923251e-05,6.220213137216509e-06,1.097104603028735e-05,1.7658439516784105e-05,7.95955088861433e-06
11.277692307692286,2.163436841537229e-05,3.659812860708674e-06,5.2977416532466275e-06,1.118155692788984e-05,0.0001642607638927984,1.034021262498186e-05,2.3803819840869284e-05,9.10826910609804e-05,6.639836232125162e-06,1.1856450790048711e-05,1.549038679466245e-05,8.643536527112397e-06
11.339999999999977,2.4966875220400197e-05,3.7388418708890942e-06,7.489573022212426e-06,1.3954566280697615e-05,0.00028029424492691154,9.969545552953226e-06,1.5186859418747644e-05,4.367017625384051e-05,6.6265481384183054e-06,1.2237608459268282e-05,1.5347714977783274e-05,6.615358207303264e-06
11.40230769230767,2.276805016355373e-05,3.7290506630445936e-06,7.755334314651918e-06,1.4695900455071373e-05,0.0002431289257970093,9.97793799513147e-06,8.031586163307718e-06,2.629917853885407e-05,6.545421011594499e-06,1.1382976053653237e-05,1.5582703914418515e-05,8.314831787004095e-06
11.464615384615362,1.5955469125591058e-05,3.6528191297217443e-06,5.678899325071522e-06,9.134495565632505e-06,0.00023175644055868362,1.0409450432291578e-05,1.6753452414519642e-05,2.1655349559542477e-05,5.64323136250285e-06,1.2173266202116413e-05,1.539946847231022e-05,1.0305244066681022e-05
11.526923076923055,1.205577169685057e-05,3.608059322838623e-06,5.685893044926616e-06,7.746242465837364e-06,0.00018682319894291292,1.0235306865287915e-05,2.3466023357106754e-05,2.5557145031029903e-05,5.471185879694455e-06,1.1929884824250318e-05,1.6700300120694087e-05,1.5599488884276978e-05
11.589230769230745,1.7360507083215756e-05,3.596169992192699e-06,6.120202935733232e-06,9.274369952313085e-06,0.00010508411512143804,1.0278667906741626e-05,1.567012542764701e-05,2.678454257415789e-05,6.503458710938048e-06,1.1456410087854843e-05,1.592889296209895e-05,2.0095750450366268e-05
11.651538461538438,2.2576422329478872e-05,3.616451779938264e-06,5.94046438446109e-06,1.0080046313731828e-05,0.0001067255407991278,1.0104524330027213e-05,1.2696396320185007e-05,2.5295579960034804e-05,5.2802573681750195e-06,1.16592279255201e-05,1.6764642318870907e-05,1.9499885635809732e-05
11.71384615384613,2.792451871750738e-05,3.561201417786227e-06,5.338305269238693e-06,9.3582945522049e-06,0.00010090327017214425,1.0424137251400604e-05,1.2701991321980207e-05,1.988034383231252e-05,6.906296888568401e-06,1.1557819018056156e-05,1.6891928026060063e-05,1.3869942264695586e-05
11.776153846153823,2.5013733090636e-05,3.593372522914251e-06,7.193039392916489e-06,6.260077314597841e-06,5.929414296351373e-05,9.877927817806646e-06,1.4284669744550152e-05,1.1536837832911337e-05,7.416138964562909e-06,1.1306045116062553e-05,1.4507070068721835e-05,6.474784445960798e-06
11.838461538461514,1.2483787274912099e-05,3.622746135079069e-06,7.040576304243965e-06,8.534434541473957e-06,5.432160920927724e-05,1.0200338239248671e-05,1.3193649687555838e-05,1.179210860845122e-05,6.392957953001618e-06,1.1229813592450455e-05,1.5656138027490368e-05,5.079537651179559e-06
11.900769230769207,6.669909199767214e-06,3.6178505363674656e-06,5.841153581561305e-06,1.0173762119573363e-05,5.626935984845242e-05,1.0492675683811587e-05,8.31483178558301e-06,4.544448248916903e-05,6.724460211415817e-06,1.1267579679241636e-05,1.65513339197787e-05,5.249485022318368e-06
11.9630769230769,6.768520654295192e-06,3.6122555655992984e-06,5.338305234422099e-06,7.23290354495513e-06,4.749783831764868e-05,1.0089837501444283e-05,7.332913716358765e-06,0.00011084973656968107,7.089532341571688e-06,1.2022201900426429e-05,1.6011418829483166e-05,4.483672869781685e-06
12.025384615384592,7.0706492882285e-06,3.5276315619133433e-06,5.928575068973411e-06,7.786806035881e-06,3.887598225513026e-05,1.0139492896854563e-05,7.20213120383543e-06,9.737493943096827e-05,6.3426032153775696e-06,1.1842463344417335e-05,1.5961064095411834e-05,4.300437438568375e-06
12.087692307692283,7.58189007849334e-06,3.5017548015048307e-06,6.704877797384748e-06,9.00441242161302e-06,3.23634317747216e-05,9.962551831677047e-06,8.344904787804808e-06,2.786786949044995e-05,5.585183496018923e-06,1.1405355947620894e-05,1.5917003661532666e-05,4.919381507306753e-06
12.149999999999975,7.539927778310584e-06,3.5535083242166364e-06,5.239693805947354e-06,7.615459958287829e-06,2.068322268371503e-05,9.69748990418869e-06,1.1753643125445024e-05,9.187647823930927e-06,5.8362579736126465e-06,1.172496889410013e-05,1.6191157406334848e-05,5.385163140185038e-06
12.212307692307668,1.0308041546617612e-05,3.580084445313029e-06,6.495066251706779e-06,6.139785362790917e-06,1.685416184334561e-05,9.839462368432805e-06,1.453014928548176e-05,1.278941275302259e-05,6.33491009433366e-06,1.2197744256070564e-05,1.620794234492943e-05,5.192835884789323e-06
12.27461538461536,1.2776824126111327e-05,3.612255550441053e-06,6.599972018506151e-06,5.036875981782411e-06,2.8630884286921325e-05,1.085984589389947e-05,2.141546500193196e-05,1.606037485307373e-05,6.1887413908815836e-06,1.1773225524791542e-05,1.635760796503405e-05,4.614455373304812e-06
12.336923076923052,1.1596983823854619e-05,3.618549895160565e-06,5.63483889356083e-06,5.520141926496081e-06,3.5535782357243305e-05,1.0994125290390381e-05,2.783499915987401e-05,2.2749866556637243e-05,5.090727603610882e-06,1.1529144773921491e-05,1.612331834953314e-05,4.755029115699471e-06
12.399230769230744,9.507260761409953e-06,3.69618016785959e-06,6.105516143861678e-06,9.303044190289712e-06,2.2794626212648456e-05,9.550621813758653e-06,1.855433487302586e-05,5.442721436210718e-05,5.975432964315057e-06,1.346780352141271e-05,1.582748405487185e-05,4.419330655736076e-06
12.461538461538437,7.88331935244931e-06,3.7031738978991293e-06,6.577592123591103e-06,8.049070482722224e-06,2.271489789838673e-05,9.721967921194618e-06,7.543424628645805e-06,6.799782541430469e-05,6.281757828929812e-06,1.3046082285702217e-05,1.6680018377239017e-05,4.8242669511940525e-06
12.52384615384613,9.824775568982129e-06,3.659812845550429e-06,7.467193107165334e-06,6.974835330216441e-06,5.720232188887546e-05,1.0522748674664702e-05,1.1724269500016741e-05,8.503172610545562e-05,6.1768520590514225e-06,1.1585793884449914e-05,1.6992637580415248e-05,5.566999851917369e-06
12.58615384615382,1.4502174394929549e-05,3.6640090712580786e-06,6.381068661672392e-06,1.0945868600723922e-05,0.0001286830190319203,9.9107983227024e-06,1.8108135613204013e-05,8.494360523888152e-05,6.764324415087231e-06,1.2208234803760357e-05,1.5189656959554062e-05,5.959347444436011e-06
12.648461538461513,2.1136415604416925e-05,3.651420377082104e-06,7.6014724899190846e-06,1.3052376607210666e-05,0.00023934672327262282,9.666717526594463e-06,1.414759287025428e-05,4.415064466295841e-05,6.0404745719703595e-06,1.2431334438171386e-05,1.5034396419840353e-05,6.145380331901151e-06
12.710769230769206,2.2834490406135424e-05,3.622046761127725e-06,6.8545433608827955e-06,1.2096335332264137e-05,0.0002614112054004636,1.0296152201997681e-05,7.468591841330862e-06,2.603481602202843e-05,5.1970321372607485e-06,1.1696294624385928e-05,1.6271585225050936e-05,6.965044119529769e-06
12.773076923076898,1.4580504043711547e-05,3.6262429925197163e-06,5.26347243408054e-06,7.2077261672613226e-06,0.0002314242388010257,1.0487780122521901e-05,8.691793207304954e-06,2.23722057079101e-05,5.622250207674521e-06,1.1524249157920016e-05,1.614220140879752e-05,9.21212583051556e-06
12.835384615384589,9.405851832392879e-06,3.69548080622432e-06,6.954553538444467e-06,6.037677078533458e-06,0.00022138895238157374,9.840861142388728e-06,1.6019111957158808e-05,2.705589893921001e-05,5.99921162892277e-06,1.1655731064526739e-05,1.637299407282929e-05,1.2585196206771342e-05
12.897692307692282,1.534841428328567e-05,3.6765977682762243e-06,5.741143415368318e-06,7.2098242704043965e-06,0.00011463753452218839,1.0123407338369362e-05,1.6412858302080242e-05,2.7130032363468597e-05,6.164962786196308e-06,1.1564113331748633e-05,1.5147694625265255e-05,1.8143803594009947e-05
12.959999999999974,2.7386002361614222e-05,3.6311385931261003e-06,5.5159456872881185e-06,6.008303447657681e-06,4.836086308041369e-05,1.0031789638276224e-05,1.0637445654045525e-05,2.34247603520051e-05,5.6502250887528286e-06,1.1638946134932364e-05,1.5612776905982173e-05,2.038668908876199e-05
13.022307692307667,3.1240939923786e-05,3.65281911645828e-06,5.938366282028559e-06,9.355497063031256e-06,6.43408101654567e-05,9.970244946562919e-06,8.2330052710707e-06,1.852216379371422e-05,6.214618135421309e-06,1.1855751427939746e-05,1.7668230736470984e-05,1.380210323726298e-05
13.084615384615358,2.478713657770489e-05,3.677996505757619e-06,5.535528102740272e-06,1.1183655065375812e-05,6.196574332311874e-05,1.0265379854483096e-05,1.4393771766663122e-05,1.3448221062380602e-05,5.801289396837698e-06,1.1450815136981873e-05,1.545821575679914e-05,6.550316649149105e-06
13.14692307692305,1.5746356897731554e-05,3.631837973709177e-06,7.1377889900266686e-06,8.881322962868883e-06,6.17468399534952e-05,1.0236705588795302e-05,1.3055873440256012e-05,1.1977442128359901e-05,6.1418834754078945e-06,1.1069657437445813e-05,1.5443528918979155e-05,5.264171824848063e-06
13.209230769230743,9.196040309925971e-06,3.6241448801395867e-06,7.13499149137912e-06,1.1486483071365683e-05,5.717714462581587e-05,1.0367488111503083e-05,7.309834464545399e-06,3.5072098904720404e-05,6.25308360137448e-06,1.1654332303360585e-05,1.6354111064013448e-05,4.97673000718161e-06
13.271538461538436,7.649029801370943e-06,3.57658758218804e-06,5.82646677903161e-06,1.024579744116257e-05,5.289279277107539e-05,1.0266778556911049e-05,9.19534094450114e-06,0.00011425707611489126,6.253083604453499e-06,1.1657829165538185e-05,1.569600218710813e-05,4.7669184643458115e-06
13.333846153846126,6.84824904979564e-06,3.5660970051291468e-06,8.074947234604225e-06,6.746840103014998e-06,6.712500962559412e-05,9.773721421405905e-06,7.411942740986888e-06,0.00011633700784964655,6.402049792105421e-06,1.1254990965170465e-05,1.647090618916991e-05,5.580987305601562e-06
13.396153846153819,6.646130592239767e-06,3.5947712585008654e-06,9.400256855703522e-06,7.853945734126455e-06,6.086703038169124e-05,1.0501068144937638e-05,6.653124303568348e-06,3.558473828372636e-05,5.474682731213913e-06,1.147319498215893e-05,1.563026123723906e-05,5.29144736584423e-06
13.458461538461512,6.868530833041101e-06,3.5667963857122232e-06,6.765023795196612e-06,7.696587078243055e-06,2.854556086096712e-05,1.0192645171258618e-05,6.578990891388988e-06,1.1636148609757887e-05,5.8075837403729715e-06,1.1759238054764864e-05,1.5872243875965825e-05,5.015894840217546e-06
13.520769230769204,7.823173372164167e-06,3.590575027108874e-06,6.0118003122037555e-06,5.9299738175866425e-06,1.6439434434782168e-05,9.392563781081738e-06,6.0859337345675614e-06,1.4221026907061211e-05,6.202029453324561e-06,1.2022201897821105e-05,1.6376490997771497e-05,5.1928358982896345e-06
13.583076923076895,9.051270301796422e-06,3.6255436252001044e-06,5.328514014972067e-06,4.880216688955367e-06,2.2370107601688004e-05,1.0095432489739172e-05,1.4943478002985937e-05,1.151585665724042e-05,5.552313012913146e-06,1.1729864482627287e-05,1.6259695930405844e-05,4.889308506742888e-06
13.645384615384588,1.0103125564834651e-05,3.6444266565164677e-06,7.067851797160074e-06,4.4347168227432124e-06,2.4847282596122492e-05,1.017725900448833e-05,3.121506314585076e-05,1.1183655068928525e-05,5.431321697813019e-06,1.1238206082945605e-05,1.8403969965419263e-05,4.4920653050913495e-06
13.70769230769228,1.1002517759332401e-05,3.717161317240425e-06,8.100124637640722e-06,7.258780290205399e-06,1.728147807043001e-05,9.70867988527857e-06,2.927150886454418e-05,3.783881381356953e-05,5.992217887040852e-06,1.2881030497643072e-05,1.7843773039061263e-05,4.453599863533478e-06
13.769999999999973,9.747844668576514e-06,3.513644121729461e-06,5.581686642604685e-06,9.035884114420393e-06,1.50588744055824e-05,1.0770326316844602e-05,1.405177895653272e-05,8.452608039443514e-05,6.139085958996778e-06,1.2012410656817944e-05,1.5798110401258705e-05,5.050164046120168e-06
13.832307692307664,7.422433312361439e-06,3.498957322752479e-06,7.2629765175709815e-06,7.878423732184577e-06,2.6850283564291052e-05,1.0803896146664254e-05,8.825373192896298e-06,9.416762039814823e-05,6.230703687274778e-06,1.141234965752839e-05,1.635201291018499e-05,5.561404854148577e-06
13.894615384615356,1.2104727752178708e-05,3.666806562326504e-06,6.630045020727948e-06,8.824673849971987e-06,5.9034676198876926e-05,1.0200338260564953e-05,1.7233221351394454e-05,8.560521082117134e-05,5.751633975611033e-06,1.2037588099644836e-05,1.6769537926582718e-05,6.908395022264813e-06
13.956923076923049,1.7571717408770836e-05,3.605961206668932e-06,5.12359810329599e-06,1.54875893746483e-05,0.00017222171333486358,1.0387070560587593e-05,1.8027008399457144e-05,7.560349423698653e-05,6.42722716672021e-06,1.146270445365379e-05,1.4784021315724279e-05,1.1731962589323075e-05
14.019230769230742,1.8236120705002654e-05,3.5975687410427782e-06,6.94686049153385e-06,1.8951578067571972e-05,0.00028280429006457555,9.821978121493657e-06,9.261081867369588e-06,4.01761144300868e-05,6.427227182825845e-06,1.2535540826282461e-05,1.499523159722571e-05,1.31817604071216e-05
14.081538461538432,1.76738257268975e-05,3.5814831884787662e-06,7.248989124519767e-06,1.1103227288818592e-05,0.00025490704708583205,9.652730125964127e-06,6.858040248403086e-06,1.935371689848845e-05,6.296444647565143e-06,1.2395666446470463e-05,1.659609369539794e-05,1.1261285319837573e-05
14.143846153846125,1.1564812672778164e-05,3.6157524107238715e-06,6.26147607718508e-06,7.84835075530547e-06,0.00020712736171428028,1.0044378360163364e-05,1.154453093192842e-05,2.3936700530668985e-05,6.6559217735573386e-06,1.1197642501296439e-05,1.636669972905717e-05,1.4862350926610664e-05
14.206153846153818,1.199702450236373e-05,3.5947712490269624e-06,6.118804212936387e-06,9.36249077507038e-06,0.00014689815872609795,1.0147186000371751e-05,2.0448933124347e-05,2.8443452589736276e-05,6.129994167973034e-06,1.1396264108043397e-05,1.64471275240885e-05,2.051257599120504e-05
14.26846153846151,2.3417766561806276e-05,3.568195113719715e-06,5.561404851069559e-06,8.13019759888789e-06,7.370260173142165e-05,1.0598280810114601e-05,1.777103834138908e-05,2.344154517643915e-05,6.14188348559234e-06,1.2002619510790662e-05,1.5526754189210124e-05,2.088813861481261e-05
14.330769230769201,3.343067305081604e-05,3.5779863272485575e-06,5.736247807893354e-06,8.991823717252601e-06,6.322950824160974e-05,1.0124806078219232e-05,1.1844561458455397e-05,1.8050087714745662e-05,5.884514640778586e-06,1.1669718507789639e-05,1.6767439789333593e-05,1.5710688942031462e-05
14.393076923076894,2.925192635269506e-05,3.5800844424708583e-06,5.725757237229345e-06,1.0781516244643778e-05,0.00010377768843928455,1.013249920731596e-05,1.742974492534207e-05,1.6062472983691123e-05,6.265672277786886e-06,1.1638246748901792e-05,1.5440032039274836e-05,9.120508155528265e-06
14.455384615384586,1.5946377261855103e-05,3.665407812529035e-06,5.6858930454003104e-06,1.0403156063176766e-05,0.00011337866512614406,1.0498970037057612e-05,1.9748861876678348e-05,1.2025698755024905e-05,6.967841601124292e-06,1.1827776522939834e-05,1.5005022775464265e-05,6.0411739487638744e-06
14.517692307692279,8.30014497665843e-06,3.6171511538896082e-06,6.200630715606318e-06,1.3939180092847892e-05,8.788516322866258e-05,9.25548689660142e-06,1.6931092818358215e-05,2.7932211768207556e-05,5.681696817561033e-06,1.1421441486921443e-05,1.6695404493323925e-05,5.999211620869952e-06
14.57999999999997,7.222412940185071e-06,3.566097011760879e-06,6.809783591658439e-06,1.2137598250442731e-05,6.932313516827548e-05,1.0200338272644178e-05,1.3124411934247367e-05,0.00012755143554462242,6.021591531180093e-06,1.1471796249888182e-05,1.591490556525817e-05,5.03477785969153e-06
14.642307692307662,7.062256800812368e-06,3.659113476336036e-06,8.718369353270342e-06,5.916685764854416e-06,3.9051524501587666e-05,1.0677309864111825e-05,8.568004401610097e-06,0.0001341982654534964,7.158070761903446e-06,1.1299051415155267e-05,1.6143600165700416e-05,4.6613133091473935e-06
14.704615384615355,6.720263979076435e-06,3.6500216348637573e-06,6.402049822895606e-06,6.596475185460804e-06,3.830599418250813e-05,9.640840782528433e-06,7.055962490198908e-06,3.53147808361598e-05,6.041873326031085e-06,1.0978039776195677e-05,1.5675021004331786e-05,4.865529880741329e-06
14.766923076923048,9.035184749706104e-06,3.6045624616084143e-06,5.360685129100299e-06,6.307634605443961e-06,3.629739830349384e-05,9.938073813723729e-06,8.261679518758076e-06,8.85055058977476e-06,5.523638798147582e-06,1.1534040369554078e-05,1.605967552743929e-05,5.443910393173231e-06
14.82923076923074,1.1150085196950006e-05,3.691284576727109e-06,6.1817476733949665e-06,5.62714579312266e-06,1.9318748268659647e-05,1.0087739413222608e-05,1.4265786723181387e-05,1.633942420392979e-05,6.034879590544051e-06,1.2251595857056448e-05,1.6482795526447565e-05,5.334808384323727e-06
14.891538461538431,1.3192950365474114e-05,3.7024745267899563e-06,5.308232254937669e-06,6.3461000372910805e-06,1.5157485860584074e-05,9.49257400056543e-06,2.0932199054376117e-05,1.9636962430761666e-05,5.840454213294303e-06,1.165503170075984e-05,1.7222730919996822e-05,5.068347705616816e-06
14.953846153846124,1.3515360759204972e-05,3.6381323155865173e-06,6.717466494639742e-06,5.122898710870534e-06,1.6144998914076798e-05,9.506561427012155e-06,2.6569835483769566e-05,1.716538239667405e-05,5.990119775134417e-06,1.2068360441475078e-05,2.0608389909663553e-05,4.834757515936872e-06
15.016153846153816,1.057240403596893e-05,3.71296510574363e-06,6.4048472838843885e-06,6.738447664863164e-06,1.6644350390038197e-05,1.036329189787466e-05,1.8474606500736477e-05,5.1724142235561506e-05,7.418237053731976e-06,1.339786630154549e-05,1.872498154611435e-05,3.812975263410105e-06
15.078461538461509,9.821978080519026e-06,3.7507311759554795e-06,4.622148487006446e-06,7.176953810272834e-06,1.9760051832662383e-05,1.1073154325439798e-05,9.425434275319351e-06,8.207268379294419e-05,7.239197899148545e-06,1.2849558763387373e-05,1.613660637644898e-05,5.54601865493017e-06
15.1407692307692,1.4846265370493939e-05,3.67240152930511e-06,8.320426750903683e-06,7.48327867109803e-06,9.545726253487411e-05,1.0750044564863022e-05,2.3797525584493922e-05,0.00010748575846619701,5.612459015935656e-06,1.1865542591020055e-05,1.7860557926496766e-05,7.421733919935984e-06
15.203076923076893,1.8329836442632087e-05,3.603863089551851e-06,1.1010910181141754e-05,1.2927888413827304e-05,0.00014392303156209133,9.241499492181523e-06,2.0797919768256178e-05,0.00011327935437392967,7.0035095977990146e-06,1.1173164493290718e-05,1.5415554015637176e-05,7.102121006378562e-06
15.265384615384585,2.1190267217245187e-05,3.6080593190490616e-06,1.1354301764517534e-05,1.3124411854903428e-05,0.00023129135932696462,9.57090360718856e-06,6.586683961510668e-06,5.815626481933123e-05,7.76162868376673e-06,1.1900511212559195e-05,1.456441849256862e-05,8.745644826291255e-06
15.327692307692278,2.26533531015131e-05,3.6122555599149565e-06,8.691093814642651e-06,8.265176322197477e-06,0.0002837323582222477,1.0938874914027489e-05,7.241296023371054e-06,2.4219946170944694e-05,5.9565499573939935e-06,1.2150886340123179e-05,1.6634559173430338e-05,1.0619261990996165e-05
15.389999999999969,1.35006739199639e-05,3.6290404826407516e-06,5.678199926251182e-06,6.106914871632322e-06,0.00025055625473247766,1.0357696902474345e-05,2.4300373933764755e-05,2.622644388713032e-05,5.694984891372694e-06,1.1456410090697015e-05,1.5927494285013685e-05,1.357970301540945e-05
15.452307692307661,1.2548129518563655e-05,3.5835812980167247e-06,6.700681563624281e-06,5.754431474258581e-06,0.0001744317279206579,9.8205793558274e-06,3.667715726625905e-05,2.4831896441905126e-05,5.646728220180345e-06,1.1526347279300353e-05,1.5684112825435173e-05,2.183578745279154e-05
15.514615384615354,2.7521680485165235e-05,3.574489463176178e-06,5.413138018184327e-06,6.260776691154509e-06,7.257241681936458e-05,9.787708882669222e-06,2.1856768649541892e-05,2.2026716068760757e-05,5.715966026779521e-06,1.1784415496170672e-05,1.546590881010464e-05,2.3569530226789464e-05
15.576923076923046,3.662120748207561e-05,3.637432941635173e-06,5.404745544979051e-06,9.796800705904237e-06,9.296609942831917e-05,1.0315035236393063e-05,1.2015208213493148e-05,1.980621041800153e-05,5.383764424967316e-06,1.1678110942625608e-05,1.8171079070346725e-05,1.5212736249026193e-05
15.639230769230737,2.957084008154235e-05,3.577286967508068e-06,5.758627693097651e-06,9.60587219841121e-06,9.41718163232963e-05,1.0888520153666073e-05,1.6397472099782816e-05,1.577363238212115e-05,5.541822448407174e-06,1.1369687950946172e-05,1.6028203757419608e-05,7.651827294570997e-06
15.70153846153843,1.5512766755184278e-05,3.535324647903811e-06,5.7110704119622825e-06,8.679204510049962e-06,7.55839116195034e-05,1.0503865637427149e-05,1.5530251003544513e-05,1.428676785314072e-05,6.523041137285191e-06,1.1371786107143103e-05,1.4837872905578327e-05,5.2131176810614e-06
15.763846153846123,7.1084153473085126e-06,3.5933725124929575e-06,5.610360877502292e-06,1.025418987694593e-05,8.425752120070722e-05,9.428931102917204e-06,9.029589789832926e-06,2.1879847931908595e-05,5.911090775612138e-06,1.1890020661316687e-05,1.7722781737461447e-05,5.159965423473523e-06
15.826153846153815,6.666412334747444e-06,3.5961700054561636e-06,5.407543061627014e-06,1.0551422906009595e-05,6.609483486338755e-05,9.607270937550539e-06,7.76442614404497e-06,9.462570898743176e-05,6.2097225350517725e-06,1.207465480585294e-05,1.5482693734725216e-05,4.9088909394849145e-06
15.888461538461506,7.299343862854357e-06,3.612954929129349e-06,7.3392080665257705e-06,9.669515034242219e-06,3.855706868923411e-05,9.848554250879716e-06,7.791002254956918e-06,0.00010699689736668461,6.7328526858053315e-06,1.0878029590818035e-05,1.5737265061943618e-05,5.16486102668523e-06
15.950769230769199,6.460797033961778e-06,3.643727291091636e-06,6.632143134292316e-06,7.29165079439061e-06,2.8634380982831922e-05,1.0038783348420565e-05,6.849647767618686e-06,3.147872638275355e-05,5.962844306376761e-06,1.113050282981476e-05,1.555682716419445e-05,4.434017458502618e-06
16.01307692307689,6.516047421693353e-06,3.628341110584188e-06,5.071844571347128e-06,6.330713866020687e-06,2.243724726772219e-05,1.0759136309938338e-05,8.699486286426843e-06,9.830370560592882e-06,5.015894825296149e-06,1.2167671240111607e-05,1.637229467329841e-05,4.507451502178128e-06
16.075384615384582,7.531535350106348e-06,3.613654296448961e-06,6.036977694871363e-06,6.43701836674874e-06,2.797906975284074e-05,1.0199638841612569e-05,1.3595089129836423e-05,1.515958393625283e-05,5.731352205392189e-06,1.2556521976136992e-05,1.6764642256816843e-05,5.318722839812532e-06
16.137692307692276,8.704381903849404e-06,3.657714723696396e-06,6.206225674768954e-06,5.387261247354521e-06,2.5262010201506276e-05,9.311436653547388e-06,1.9500584948417554e-05,1.7710192995915956e-05,6.554512851408845e-06,1.2049477396658403e-05,1.6763243583284292e-05,4.8494443412039345e-06
16.199999999999967,9.309338552772791e-06,3.6835914859996896e-06,6.667811084544913e-06,4.506052757828153e-06,1.889003331214667e-05,1.0059065170982724e-05,2.388005144098315e-05,2.0141209525093018e-05,6.157969035077334e-06,1.3027898612231563e-05,1.728077877961217e-05,4.9144859140426435e-06
16.262307692307658,9.48907711020297e-06,3.6772971374906168e-06,6.307634605917656e-06,6.623750687850815e-06,1.4940680481127326e-05,1.0450713364681027e-05,1.760598666938525e-05,6.258748528864544e-05,5.5495155538191435e-06,1.780390888133828e-05,1.6189059322850123e-05,4.884412924373768e-06
16.324615384615353,8.779214665821655e-06,3.724155052964306e-06,6.270567905867589e-06,6.9237812039564995e-06,3.151299552565471e-05,9.961852478094595e-06,1.073465835830234e-05,8.9901452304512e-05,5.7005798550354335e-06,1.6156188823165016e-05,1.624640778459252e-05,5.815276841758532e-06
16.386923076923043,9.168764776982622e-06,3.666806571800407e-06,7.825271499702542e-06,6.906996279572771e-06,0.00010039063076684821,9.92128893434104e-06,1.5546336609636076e-05,0.00010987551190713893,5.447407238297804e-06,1.0661224309653032e-05,1.6783525372450942e-05,6.111810501607806e-06
16.449230769230738,1.5991836420662745e-05,3.5626001656889153e-06,6.764324441140464e-06,1.1272475265163468e-05,0.0004522390051770723,1.0405953588351243e-05,1.9614582591742646e-05,0.00010496662103444502,6.530734216880773e-06,1.1998423261871948e-05,1.5725375791693827e-05,6.895806329509924e-06
16.51153846153843,2.2178479704374846e-05,3.5891762829957465e-06,7.156672023474661e-06,1.2634851605023794e-05,0.00048046215603060697,1.0120609877854273e-05,1.1980239604980625e-05,5.2582271525617825e-05,7.075544889071731e-06,1.3558721835475278e-05,1.658140690115791e-05,9.96045369442792e-06
16.57384615384612,2.075106180280765e-05,3.5905750261614837e-06,7.30284072953206e-06,9.66811630007669e-06,0.000144829416918905,9.967447436072992e-06,6.39645484123245e-06,2.4871061251966847e-05,5.760725844794479e-06,1.129905144523491e-05,1.72576994347177e-05,1.0452112095293841e-05
16.636153846153814,1.4097937503976254e-05,3.584280671968069e-06,5.9236794768935395e-06,7.005607724626847e-06,0.00010616884082329156,1.03220289569587e-05,1.0908801945438048e-05,1.7025508049310172e-05,5.439714156096898e-06,1.0857747800230299e-05,1.6393275843758676e-05,1.3841267998534098e-05
16.698461538461505,9.698189262744943e-06,3.6052618260858555e-06,6.223010603415939e-06,6.025787764230017e-06,0.0001399058389466745,1.0253490517442287e-05,1.2173965584357424e-05,2.342196287206851e-05,5.65162382955009e-06,1.1625658069173521e-05,1.589182625825932e-05,2.0900727321541505e-05
16.760769230769196,1.903969890359273e-05,3.58428067481024e-06,5.742542134849297e-06,6.5461203928881184e-06,0.00011159386814630541,1.078711123554399e-05,1.522672362715601e-05,2.5976068784909026e-05,6.274064773018987e-06,1.1918694888872021e-05,1.523091989004873e-05,2.1207751602740168e-05
16.82307692307689,3.1129739799003646e-05,3.608758690158235e-06,5.489369536585779e-06,7.590981932044845e-06,7.283607983410434e-05,9.956956876067125e-06,1.649398539077159e-05,2.1074870970020734e-05,6.216716279302167e-06,1.187953006412575e-05,1.6405864547171706e-05,1.6200249206121953e-05
16.88538461538458,3.067724619919924e-05,3.672401531199891e-06,5.183744062738545e-06,9.419139893177923e-06,8.933635971762518e-05,9.884921554951613e-06,1.24691004922776e-05,1.5586900165705704e-05,7.863736963760932e-06,1.1596983834749609e-05,1.6010719459321384e-05,1.007165380334148e-05
16.947692307692275,1.938378983818249e-05,3.643727281617733e-06,6.257979201507169e-06,1.105636934326526e-05,8.933006542903854e-05,9.846456124051883e-06,1.919356068971941e-05,1.0797601784418021e-05,7.943465339129338e-06,1.1796304790342067e-05,1.5503674887895613e-05,4.989318704199756e-06
17.009999999999966,9.552719943665503e-06,3.604562460661024e-06,5.773314512917219e-06,9.930380707838064e-06,8.157053490833732e-05,9.700986786024638e-06,1.7554932475386902e-05,1.4174868375249617e-05,6.271966636717252e-06,1.1861346364128167e-05,1.6031700624807854e-05,4.634037793493917e-06
17.072307692307657,7.512652287526104e-06,3.5996668619494206e-06,5.019391676815606e-06,9.040080380392131e-06,7.317387641165851e-05,9.93597568760644e-06,7.793100398127232e-06,5.8931169274008725e-05,6.114607979412767e-06,1.2079550354826552e-05,1.5993934579228152e-05,4.553610031384399e-06
17.13461538461535,7.379771645095919e-06,3.6010655975360352e-06,6.387362999760171e-06,6.91888559695523e-06,5.348725845711518e-05,1.0308041503037657e-05,6.813280449099087e-06,0.00010465260319042121,6.266371667370171e-06,1.1183655044533224e-05,1.584147153153026e-05,4.2500826680225146e-06
17.196923076923042,6.916787480311844e-06,3.667505928698726e-06,6.488072560510242e-06,5.629243923266358e-06,5.3939752015471264e-05,1.0251392430641696e-05,6.803489248123166e-06,6.960288403708621e-05,6.423030961855148e-06,1.1039584468619523e-05,1.5968757185191863e-05,4.7941939598672436e-06
17.259230769230733,7.152475790661583e-06,3.65421786909792e-06,6.791599916056157e-06,6.6300450302018515e-06,3.93774318186028e-05,1.0170964675400758e-05,5.8614353757017545e-06,1.9180972021833516e-05,6.032082120081365e-06,1.1815887195846624e-05,1.6345718609992824e-05,4.655718344063568e-06
17.321538461538427,8.070051634234688e-06,3.6458254072613273e-06,6.230703686564235e-06,5.4404135302850895e-06,2.1403575695918185e-05,1.0068856361537352e-05,9.286958634172986e-06,1.3239108873364103e-05,5.48447395208503e-06,1.2508265327208315e-05,1.5624666235207012e-05,5.183044704655989e-06
17.383846153846118,9.079245172216588e-06,3.701775166102076e-06,5.291447331975026e-06,5.101917560305462e-06,2.198195621663975e-05,9.522646945470114e-06,1.5045586338165624e-05,1.3783220161182423e-05,5.771915773304196e-06,1.2452315594657648e-05,1.5322537584694374e-05,5.336207116357627e-06
17.446153846153813,1.006815694519029e-05,3.7192594599370447e-06,5.40824241876218e-06,6.322321421000273e-06,2.1772844064097778e-05,1.0009409736492595e-05,2.420455995396272e-05,1.4798708067331745e-05,6.1250985481819955e-06,1.1725668260472351e-05,1.6193255534820614e-05,4.655718310904907e-06
17.508461538461503,9.77721827221482e-06,3.694082066848144e-06,5.886612742263727e-06,5.049464670510891e-06,1.6687711400464878e-05,9.961153083063815e-06,2.7033518995267515e-05,1.975725434467298e-05,5.885913356470004e-06,1.3111123853803975e-05,1.667302465075219e-05,4.680895696414685e-06
17.570769230769194,8.791803346497317e-06,3.647923526273189e-06,6.713270270590025e-06,5.621550838460128e-06,1.525120159323971e-05,1.0324826434526812e-05,1.6169476853159875e-05,6.625499088031006e-05,5.77611199664337e-06,1.3941278203570088e-05,1.6528954056601226e-05,5.111708753465412e-06
17.63307692307689,9.489077076333766e-06,3.717860708244795e-06,7.528737822800243e-06,6.791599942819933e-06,3.460491839391011e-05,1.0189148292975385e-05,8.68759698491317e-06,9.122536299746761e-05,5.655120683438024e-06,1.2908305998848846e-05,1.660518551508024e-05,4.714465557498215e-06
17.69538461538458,1.3481091554723435e-05,3.675898391482709e-06,8.44351619117371e-06,8.649830908780131e-06,0.00010912438622104522,1.003318840867943e-05,2.2909323179713206e-05,8.754177140701813e-05,5.4781795941020546e-06,1.214179448301896e-05,1.483367664339615e-05,4.134686307821767e-06
17.75769230769227,1.9503382435222724e-05,3.58428067386285e-06,6.9930190126873034e-06,1.70877520974481e-05,0.00021711578950534734,1.0409450480845331e-05,2.2547048555784006e-05,7.584197994958686e-05,7.145482045700647e-06,1.2756542336234133e-05,1.7018514288717294e-05,5.077439550404961e-06
17.819999999999965,2.127559060933019e-05,3.6696040496053683e-06,6.143981602946269e-06,2.264496071475719e-05,0.00038250324125499446,9.704483626885955e-06,6.381068647698385e-06,3.925224430882205e-05,6.9251799333850766e-06,1.3919597681658995e-05,1.6880738038575296e-05,6.982528435154715e-06
17.882307692307656,1.6288370039774237e-05,3.664708448051594e-06,6.162165258890203e-06,1.6031700615097103e-05,0.00037856577878680277,1.011011925484695e-05,5.0375753680498295e-06,2.163157092264593e-05,4.961343815305478e-06,1.2473296704721785e-05,1.4585399621580564e-05,7.544124030545163e-06
17.94461538461535,9.850652315179786e-06,3.6528191126687184e-06,5.169057241261043e-06,7.715470087769443e-06,0.00020769944822897438,1.0197540759075233e-05,9.290455472902674e-06,1.701641623839123e-05,5.092825713148841e-06,1.1367589844250384e-05,1.629536375844509e-05,1.13563998930033e-05
18.00692307692304,1.0993425858648228e-05,3.687787705075607e-06,5.757928336909875e-06,6.062854472569749e-06,0.00011185893027345628,1.0027593449279948e-05,2.3351326247222916e-05,2.3420564074901527e-05,6.662915508096982e-06,1.1480188725461933e-05,1.5840772124420256e-05,1.8398374920280957e-05
18.06923076923073,1.737309577431271e-05,3.6570153478502713e-06,5.648826331376237e-06,6.7783118742189195e-06,8.9969990559761e-05,1.033601641395876e-05,2.47318862645803e-05,2.8333651238673006e-05,8.472190465151168e-06,1.147529312675033e-05,1.632613618767209e-05,2.243514913971012e-05
18.131538461538426,2.687196408691269e-05,3.6255436100418594e-06,6.496465011451846e-06,9.517751347705902e-06,0.00011222190452689537,9.874430974103158e-06,1.3834973675367716e-05,2.3678632348615262e-05,8.027389956547874e-06,1.1966252128085367e-05,1.571138834606245e-05,1.7064672813423462e-05
18.193846153846117,2.8705717029472073e-05,3.6521197462964967e-06,6.2195137620809264e-06,1.2789412798497323e-05,0.00011135818035867828,1.0297550928820935e-05,1.6100239089193263e-05,1.374545412365554e-05,7.357391734785779e-06,1.1707484536079467e-05,1.5580605834960202e-05,8.23720150554171e-06
18.256153846153808,1.709194834044562e-05,3.6954808109612715e-06,5.334109005635431e-06,1.1308842618262815e-05,0.00010869497233988076,9.959754338240146e-06,1.681639585342509e-05,9.089735775565562e-06,7.969342088169165e-06,1.1206034944422072e-05,1.6826886422904863e-05,4.899099706060876e-06
18.318461538461502,7.771419866742235e-06,3.690585204670545e-06,6.269868522442342e-06,8.10851709710884e-06,9.623566318618751e-05,9.670214395640642e-06,1.065283184473742e-05,2.3663945511032126e-05,6.806286709822492e-06,1.1154980807267142e-05,1.5885531930355985e-05,4.245187063389721e-06
18.380769230769193,6.7069758908170724e-06,3.6724015368842328e-06,6.045370160260669e-06,6.827267872703639e-06,5.7718458541226404e-05,9.796800684824802e-06,7.0944279350726445e-06,9.576988112390458e-05,5.864932230063383e-06,1.2497075338776161e-05,1.5693204738909115e-05,4.504654000925257e-06
18.443076923076887,7.4532056565601575e-06,3.6577147246437863e-06,8.929579616771358e-06,7.278362683630727e-06,3.8852902995500924e-05,1.0275171038879687e-05,6.965044141556594e-06,0.0001192296099605509,7.104918498868074e-06,1.1687902137206645e-05,1.648978921101237e-05,4.527033901050951e-06
18.50538461538458,6.702080332369557e-06,3.6332367045588397e-06,9.198837790573104e-06,7.438518855688396e-06,3.8052821592534275e-05,1.013110046036066e-05,6.143981610999086e-06,4.990927236789844e-05,6.45380332523852e-06,1.0629053182498183e-05,1.6175071849981273e-05,5.031281001303493e-06
18.56769230769227,7.18045068452966e-06,3.6318379632878835e-06,6.090829342279373e-06,6.6433330784339734e-06,2.566834517736538e-05,9.941570698638695e-06,6.1691590026669015e-06,1.2984537528618982e-05,5.590079094256831e-06,1.1394865346877243e-05,1.6056878020738926e-05,4.959245702451653e-06
18.629999999999963,7.877724418866213e-06,3.657015356376784e-06,5.713168538316419e-06,6.026487115917689e-06,2.2201558978925582e-05,1.0913697550544536e-05,1.096545105004528e-05,1.3025101091083495e-05,5.788001316631153e-06,1.1950166612469578e-05,1.5906513058894235e-05,4.434716821322127e-06
18.692307692307654,9.080643927461551e-06,3.7675161138395196e-06,5.727855358372835e-06,5.41383740303066e-06,2.492910914710933e-05,1.0408751060235015e-05,1.9675427810739166e-05,1.5346316212353863e-05,6.022290903473504e-06,1.2331324235030176e-05,1.6005124509158954e-05,4.236095212206692e-06
18.75461538461535,1.0030390850109446e-05,3.786399159366738e-06,5.7131685537115114e-06,5.211019564418014e-06,2.4829798330472386e-05,1.014368915216816e-05,2.9275005635061763e-05,2.070140636429111e-05,5.978230471725965e-06,1.1843162672657096e-05,1.685765877610379e-05,5.8110806241037e-06
18.81692307692304,9.57649856493011e-06,3.677996522810645e-06,6.143981599867251e-06,6.793698041226056e-06,1.7764744012064663e-05,9.831069938333788e-06,2.4496897376498814e-05,3.715832498064249e-05,5.499160753904183e-06,1.2739757355243835e-05,1.739058012191208e-05,7.552516508250543e-06
18.87923076923073,7.823173369795692e-06,3.660512218554383e-06,5.476780872489447e-06,7.816879030760522e-06,1.5898120566267455e-05,9.548523672246272e-06,1.2327128054560414e-05,8.466525518950145e-05,6.0006103595355855e-06,1.2381678988523011e-05,1.7589201707579605e-05,6.351695049507574e-06
18.941538461538425,7.168561323804094e-06,3.8031840593551653e-06,8.59737800359047e-06,6.432822146488585e-06,2.2020421638065576e-05,1.033531700424343e-05,9.963251196154488e-06,8.620737014860916e-05,5.653022554478563e-06,1.224739962045381e-05,1.848299889980846e-05,5.77261516786128e-06
19.003846153846116,1.2668421428922253e-05,3.800386576813253e-06,8.391762678646349e-06,6.5733958860410745e-06,0.00011787702504643487,1.0568207833946038e-05,2.045522747096129e-05,7.215559118497102e-05,5.3012385161347686e-06,1.2828577647875742e-05,1.3071259627395192e-05,5.9768317399289115e-06
19.066153846153806,1.9006828358669738e-05,3.6689046794435855e-06,6.567101549611228e-06,1.3865046684931788e-05,0.0004179369178189063,1.0002416004321428e-05,1.6295363789235277e-05,7.082398721962591e-05,6.820274158769735e-06,1.1378779825340265e-05,1.7388481999584353e-05,1.1060565643579897e-05
19.1284615384615,2.0970664527434715e-05,3.7031738978991293e-06,7.802891575181548e-06,1.6987042585488628e-05,0.00051458590928443,9.946466288586938e-06,3.352089214085178e-06,3.386708120866426e-05,6.844752186907499e-06,1.1531242897433458e-05,1.9523664225099916e-05,1.469030545848682e-05
19.19076923076919,1.665064471509936e-05,3.65841409670035e-06,6.288052167017592e-06,1.1657129789455212e-05,0.0003707461026957996,1.0044378346426204e-05,5.570496664830671e-06,1.8752257091136926e-05,5.5649017113523765e-06,1.1880229448024692e-05,1.4004221660002258e-05,1.4725274012998095e-05
19.253076923076886,9.428931117838602e-06,3.579385075151246e-06,6.326517609286005e-06,9.166666660102388e-06,0.0002850751507537552,1.0015004702050117e-05,1.6528954019653005e-05,2.2271496175581735e-05,5.506853854105505e-06,1.1805396639393469e-05,1.6300958750055847e-05,1.7082157067704885e-05
19.315384615384577,1.4945576140708756e-05,3.585679415133806e-06,6.330014488753477e-06,7.54482338270653e-06,0.00014892493812107926,1.0191246444909059e-05,2.6262111844725193e-05,2.849031052936842e-05,6.4363190297456185e-06,1.1762035608834746e-05,1.5684112827329955e-05,2.0629371050517875e-05
19.377692307692268,2.765386178917121e-05,3.6388316800639585e-06,5.913188894387152e-06,6.78670430692326e-06,8.711375571787508e-05,1.0049274004349703e-05,2.2303667200181584e-05,2.879173980119276e-05,7.816179659651349e-06,1.1367589875514265e-05,1.6193954890771542e-05,2.164975465414424e-05
19.439999999999962,2.932466114439573e-05,3.6430279180876823e-06,6.178250809796282e-06,6.121601692399281e-06,8.558073262984559e-05,9.773721483696818e-06,1.419584952178828e-05,1.9065575652158866e-05,7.460199397020991e-06,1.1624958707301403e-05,1.5450522599280703e-05,1.4560921726787986e-05
19.502307692307653,2.3134520944267933e-05,3.583581305595847e-06,6.3908598482006106e-06,8.765227247901445e-06,9.44403754850498e-05,9.994722937278766e-06,1.760179038114984e-05,1.2309643655801969e-05,6.674804829269002e-06,1.1450115750951303e-05,1.6149195045992806e-05,7.895908062257225e-06
19.564615384615344,1.4456715195620973e-05,3.6024643425965524e-06,6.7957961531324905e-06,1.1485084319199739e-05,0.00010537015861350104,1.1007413352359663e-05,1.5998130771303445e-05,1.5023905802991067e-05,7.348299924577381e-06,1.110672419220767e-05,1.674925606115115e-05,5.717364779419162e-06
19.62692307692304,7.35669237007149e-06,3.665407813476425e-06,6.86153709636983e-06,1.0463302081594368e-05,7.901293212171367e-05,1.0415744805432799e-05,8.187546103736547e-06,5.695614344697712e-05,6.652424942169925e-06,1.1401159760993095e-05,1.6154790057498757e-05,5.4564990965862614e-06
19.68923076923073,6.954553554076408e-06,3.708069510821588e-06,4.736146088409517e-06,1.1283665247911283e-05,5.047366557372849e-05,9.412146201507691e-06,9.195340894289453e-06,0.0001284109639020888,6.27896036201984e-06,1.1644541154017436e-05,1.6126815200342056e-05,5.78170698375402e-06
19.751538461538424,7.4853767640566575e-06,3.733946267440539e-06,6.569199662938748e-06,9.362490810597517e-06,3.6976488383544394e-05,9.80099692640124e-06,8.666615784610106e-06,0.00010148304976951295,6.381068646277299e-06,1.1692797783524612e-05,1.5814895376801512e-05,5.730652839019968e-06
19.813846153846114,6.767121891234259e-06,3.664009067468517e-06,8.205729756127766e-06,7.144782714145018e-06,3.028489865452381e-05,9.803095077624372e-06,6.996515867522627e-06,2.684888493220683e-05,5.729254090169888e-06,1.1611670648884835e-05,1.583447776738467e-05,4.9249764849435e-06
19.876153846153805,6.50765495014601e-06,3.664708442367252e-06,5.955850568284404e-06,6.327217028001541e-06,1.7298262964734097e-05,9.919190792118115e-06,6.906296909647835e-06,1.1688601511631684e-05,5.728554709113117e-06,1.211102212721471e-05,1.5414854645238543e-05,4.566898108038231e-06
19.9384615384615,7.620355552736176e-06,3.7654180024067802e-06,6.232801834234655e-06,6.004107222186879e-06,2.3653454814602052e-05,1.0133897934139213e-05,1.1587892002277537e-05,1.4046183985290857e-05,6.184545156884269e-06,1.2073256016738772e-05,1.6309351266841077e-05,4.438913070477687e-06
20.00076923076919,9.760433362041947e-06,3.8045828356795636e-06,6.067750083360579e-06,5.610360886028805e-06,2.5435454301477496e-05,1.0213626322771082e-05,2.14742122745785e-05,1.963696245492012e-05,5.971936130796014e-06,1.1702588983789989e-05,1.7866152978740503e-05,4.862033039643165e-06
20.06307692307688,1.11927468571101e-05,3.7654180033541705e-06,5.671206239317902e-06,5.669108136648523e-06,1.8880941490569587e-05,1.0258386088205878e-05,2.7023727796896915e-05,1.628487322709778e-05,5.872625323632974e-06,1.3067762802402664e-05,1.774656040585872e-05,5.0040055211771534e-06
20.125384615384576,1.0792706187601198e-05,3.7542280438174204e-06,6.074044401790009e-06,9.651331350113423e-06,1.4367895041781746e-05,9.894712745269392e-06,1.8596996518501404e-05,7.74162663951472e-05,6.097823045555136e-06,1.4423145377170006e-05,1.677862977989738e-05,4.932669583013194e-06
20.187692307692267,1.2734162426397689e-05,3.847244495129114e-06,4.780206496235451e-06,8.568004380293815e-06,2.4327649333836614e-05,9.835965514308024e-06,9.033786025014479e-06,0.0001191722618716066,5.967040513136605e-06,1.335730270758025e-05,1.7980849927804837e-05,5.3124284770926044e-06
20.24999999999996,1.7033900504041338e-05,3.7829022886626263e-06,6.257279826134739e-06,7.181150047822863e-06,8.244894590679527e-05,1.0498270630894998e-05,1.8590702196045566e-05,0.00011812530191382583,6.099921173567206e-06,1.1357798624800353e-05,1.401750974352467e-05,5.462094043195975e-06
20.31230769230765,1.7229025240794725e-05,3.6849902414815005e-06,7.4196358068453115e-06,1.4627362025265711e-05,0.0002719157691271808,1.109273670868068e-05,1.8424251668136548e-05,0.00011459767036730758,7.401452151138225e-06,1.3055174114147878e-05,1.6985643790926965e-05,6.070547548849466e-06
20.374615384615343,2.0231428518731794e-05,3.7087688857203224e-06,6.448208312074636e-06,1.903480333093436e-05,0.0005453876422166104,9.961153093485109e-06,6.432822155251945e-06,6.7463505533046e-05,7.514750386642769e-06,1.5250502318290653e-05,1.7991340495389826e-05,8.096627753199452e-06
20.436923076923037,2.3554144100993804e-05,3.7360443788732784e-06,6.186643252211373e-06,1.1797703548902897e-05,0.0004588970275705151,9.83946237293291e-06,6.226507485962429e-06,3.44713385513747e-05,6.015297175091897e-06,1.2252295217270633e-05,1.3544035036261448e-05,8.557513811998282e-06
20.499230769230728,1.7947280061510657e-05,3.7507311816398214e-06,5.147376714139303e-06,6.357989403700988e-06,0.00024309605510192494,1.0998321486965779e-05,2.490882738210113e-05,2.0298568193055643e-05,5.709671677559906e-06,1.091999188034265e-05,1.59806464751e-05,1.053253989648321e-05
20.56153846153842,1.3475496547007044e-05,3.7108669838895973e-06,5.647427583236701e-06,6.875524539632731e-06,0.0001793958694127203,1.038077616328792e-05,3.968305743834814e-05,2.511094576907643e-05,5.589379730253086e-06,1.1994926417221071e-05,1.5836575869343505e-05,1.5067266868840079e-05
20.623846153846113,1.7045789821423796e-05,3.703873263323961e-06,6.450306449323761e-06,1.018285395844032e-05,0.00010082913699870725,1.0148584713457846e-05,2.282260114820171e-05,3.129199412465293e-05,6.157269668468264e-06,1.1418644019300928e-05,1.6445029399392296e-05,1.9139709108155025e-05
20.686153846153804,2.621245653576428e-05,3.677297138438007e-06,6.320922659597273e-06,9.995422312414348e-06,0.00010105923070445518,1.007654942100089e-05,1.0056267624728813e-05,2.5269703246285266e-05,5.678199948278007e-06,1.1508862944253905e-05,1.5687609691402336e-05,1.893549255740368e-05
20.7484615384615,3.0922725707445885e-05,3.633236712137962e-06,5.2347982055778175e-06,7.823872746115512e-06,0.00010495543098656412,1.0770326332239695e-05,1.4744856403107557e-05,1.4379784330979343e-05,5.662114404477355e-06,1.1887223133536887e-05,1.6290468237419495e-05,1.1883026907355543e-05
20.81076923076919,2.257572276841794e-05,3.6248442531435407e-06,5.689389896446073e-06,1.1147287710381685e-05,8.424423285428399e-05,1.1024897684090244e-05,1.6077859083670394e-05,9.187647820378213e-06,6.409742908412378e-06,1.1744551290841324e-05,1.6958368350591022e-05,6.865033942678641e-06
20.87307692307688,1.0539533568258245e-05,3.5905750204771417e-06,6.663614866653234e-06,1.8353615146082803e-05,7.951438126857132e-05,9.396060636390758e-06,1.0791307426435045e-05,2.122383711030314e-05,7.283258319290553e-06,1.0755639501051443e-05,1.5373591747902537e-05,5.601269034608928e-06
20.935384615384574,7.330116216526979e-06,3.644426658411248e-06,6.5922789467265375e-06,1.7897624707548707e-05,8.606399895185745e-05,9.769525203514225e-06,7.715470132770482e-06,8.321056179051803e-05,8.070051635655772e-06,1.16997915038534e-05,1.6171575017172774e-05,4.8858116618551625e-06
20.997692307692265,8.058861673276852e-06,3.692683326524578e-06,7.0384781669948404e-06,1.0521349939551782e-05,7.396486605983909e-05,9.7765189202903e-06,7.00350958264077e-06,0.00013069511189343075,6.922382461501305e-06,1.162355996958316e-05,1.6120520869359703e-05,4.344497880974055e-06
21.059999999999956,7.106317241560115e-06,3.6339360832471356e-06,6.728656431675973e-06,7.34340430502319e-06,4.983863575371099e-05,9.83876299850787e-06,6.801391116084687e-06,7.283817791119418e-05,5.8327611348829574e-06,1.1185053813989044e-05,1.5565219638347116e-05,4.671803884785201e-06
21.12230769230765,6.786004925629641e-06,3.6311385969156618e-06,7.2098242597462555e-06,8.260280793355908e-06,2.6346036569198836e-05,1.0444419020908905e-05,7.679802150069767e-06,1.5038592631337147e-05,5.262773073866356e-06,1.1864143866802123e-05,1.5867348264464453e-05,4.811678238307119e-06
21.18461538461534,6.653124290304883e-06,3.70527201217404e-06,6.960148518923385e-06,7.835762100446193e-06,1.9299865183342035e-05,1.0387070547560976e-05,1.2157180663763256e-05,1.4986139732779218e-05,6.0404745454434305e-06,1.2020103802020305e-05,1.5930991091295253e-05,4.12839196168117e-06
21.246923076923036,7.828768350037763e-06,3.778706063902367e-06,5.525037512181067e-06,6.065651963638175e-06,2.20616845335068e-05,1.0485681982193757e-05,1.827808299239564e-05,2.0815403989615788e-05,6.255181693622565e-06,1.2423641340338539e-05,1.6644350382222228e-05,4.657816439864367e-06
21.309230769230727,1.1160575789403993e-05,3.795490995154675e-06,5.895005213337375e-06,5.941863137574425e-06,2.0883942434105998e-05,1.0193344548052135e-05,2.2368009472491696e-05,2.4498995515879565e-05,5.817374930453904e-06,1.2989433161436636e-05,1.7850067411255092e-05,5.697082993094682e-06
21.371538461538417,1.164593987799852e-05,3.817870865911269e-06,5.761425203587578e-06,7.212621779946933e-06,1.712621754753248e-05,9.602375355655112e-06,2.0255906472262573e-05,3.827592125536701e-05,5.6362376355423295e-06,1.3769232771447074e-05,1.7484995275888574e-05,5.772615160282157e-06
21.433846153846112,2.771820408658717e-05,3.6101574191131174e-06,5.583784777722182e-06,9.982134269156025e-06,1.9115930414651908e-05,1.0212227599974237e-05,1.2202639779701486e-05,9.639022395949345e-05,5.595674066209237e-06,1.1624259325060394e-05,1.636460162922996e-05,5.285852361206859e-06
21.496153846153803,6.0499160767335525e-05,3.6472241494796737e-06,8.077045367826941e-06,9.718471071806789e-06,7.390821690028323e-05,1.0443020288638157e-05,1.3847562374280643e-05,0.00012092838432925153,6.217415613699965e-06,1.1151483944852695e-05,1.7397573874215292e-05,5.315225963660926e-06
21.558461538461493,6.332322418600711e-05,3.870323776785275e-06,6.292248424462817e-06,1.1401859090180248e-05,0.0003032483283367545,9.991226079838118e-06,2.221065083508241e-05,0.00011927716717963222,6.4677907291847225e-06,1.2649538417501087e-05,1.703110304139462e-05,5.710371047011146e-06
21.620769230769188,3.7324775541473323e-05,3.7549274177687646e-06,5.607563377670507e-06,1.5002225273737698e-05,0.000575395590363333,1.0315035243024796e-05,1.5272182857965314e-05,9.572931741435771e-05,6.527936718470073e-06,1.545052259857016e-05,1.8255003738450644e-05,6.242593011999513e-06
21.68307692307688,2.6081673945081244e-05,3.7101676175173756e-06,6.746140721010836e-06,1.2825780099253354e-05,0.0005126283660539836,1.0457707083351881e-05,7.372777931162015e-06,3.761921110741658e-05,6.353793134176537e-06,1.4070661977901485e-05,2.0147503898471088e-05,7.750438687281758e-06
21.745384615384573,1.9955176698024008e-05,3.7304494081051113e-06,4.721459271195272e-06,1.0015704080027868e-05,0.0002870180054666586,1.0251392376166754e-05,1.2397065176135886e-05,2.014120953172475e-05,5.699880470662796e-06,1.0839564130786055e-05,1.751996386569014e-05,1.0626255701140508e-05
21.807692307692264,9.497469577723904e-06,3.6835914897892506e-06,5.760026462079774e-06,9.390465669412151e-06,0.00017704178421145873,9.953459997310195e-06,2.0313954373089397e-05,2.7197171974080447e-05,5.6236489427874405e-06,1.2024999398363434e-05,1.5233717329958077e-05,1.515328960882319e-05
21.869999999999955,1.5335825644532027e-05,3.698278300134916e-06,6.790900555131429e-06,7.762328041849287e-06,8.721166801445671e-05,1.0003115434405648e-05,2.350938427989983e-05,3.110316372338199e-05,6.335609465442834e-06,1.1996325165834302e-05,1.5696701554664592e-05,2.0997939984823687e-05
21.93230769230765,2.5862770547272853e-05,3.7269525459275127e-06,5.494964536486199e-06,1.0027593409252708e-05,0.0001001766231612559,9.905203371355735e-06,1.6759047315654622e-05,2.8844192675829088e-05,5.601269036977404e-06,1.16473386218748e-05,1.6356209202209962e-05,2.4148610125962478e-05
21.99461538461534,2.7681836742724877e-05,3.687787717391681e-06,5.613158362175833e-06,1.542464585166196e-05,0.0001177777142023236,9.969545560769196e-06,9.598878483766763e-06,2.3015627712889377e-05,5.896403952713551e-06,1.1870438228337814e-05,1.601281760343909e-05,1.665344219337802e-05
22.056923076923034,2.1003535011487883e-05,3.6912845748323283e-06,7.169260719782263e-06,1.2292159386835995e-05,0.00011493197035008506,1.0679407984071076e-05,1.1449416340999127e-05,1.4326632092339272e-05,6.0208921572287485e-06,1.2045980536375585e-05,1.5178466971121906e-05,7.37767347492498e-06
22.119230769230725,1.3753147122012403e-05,3.690585198038813e-06,7.316128833186516e-06,8.051867922157878e-06,0.0001262296231788677,1.1174563219166582e-05,1.403988957756989e-05,1.3475496556007254e-05,5.641133264096728e-06,1.1200439980522484e-05,1.6910111664477275e-05,5.860735972618159e-06
22.181538461538416,1.1722171372952061e-05,3.7241550510695257e-06,6.188042028298923e-06,1.0987131513928716e-05,9.696790533908484e-05,9.093232608374061e-06,1.099762209098761e-05,2.7904236846391464e-05,5.643231367002954e-06,1.0954960488144632e-05,1.7195455400080087e-05,5.4942651641927876e-06
22.24384615384611,1.2056471131671742e-05,3.689885837350933e-06,5.209620819831192e-06,1.2264883897709448e-05,6.703129369043382e-05,9.338712102409848e-06,7.603570599220196e-06,8.081451368984934e-05,7.106317239902182e-06,1.1671117233665503e-05,1.6060374908496062e-05,5.5033569945332294e-06
22.3061538461538,1.5869446384660555e-05,3.6898858382983234e-06,6.6125607406301395e-06,9.421238020005756e-06,3.654217843589436e-05,1.0681506044107891e-05,9.231008859937144e-06,8.010395194446573e-05,6.851046513863442e-06,1.1701190208412982e-05,1.6093944763421555e-05,5.6306426664320956e-06
22.368461538461492,1.4652539343510777e-05,3.697578922394011e-06,9.10931819646521e-06,8.421835659551864e-06,3.9835520361701056e-05,9.681404353282612e-06,8.945665186151549e-06,3.122974997632847e-05,5.504755738646357e-06,1.1435428916684032e-05,1.5334426934051255e-05,5.100518814534401e-06
22.430769230769187,9.265977440975348e-06,3.6262429868353744e-06,6.6657129930073705e-06,9.610767780543483e-06,3.1166806529607056e-05,1.0301747171818458e-05,7.158770152670968e-06,2.1376300150185065e-05,5.835558621924975e-06,1.1250095381380258e-05,1.5315543874313182e-05,5.743940904778811e-06
22.493076923076877,8.188245478635281e-06,3.667505932488287e-06,4.879517319977822e-06,7.156672011158586e-06,1.8027707894200756e-05,9.961852447067561e-06,7.780511681213891e-06,2.1329442272843835e-05,5.646728214496004e-06,1.2548129525195388e-05,1.5954070356135238e-05,5.464891553212207e-06
22.555384615384572,9.03798223295856e-06,3.7381424922007983e-06,7.100722284529108e-06,5.5844841291730065e-06,2.165045404349068e-05,9.701686127764712e-06,1.0467498284801498e-05,2.603831294815488e-05,6.027186500527174e-06,1.4891724548012538e-05,1.6784924088142362e-05,4.889308518822115e-06
22.617692307692263,8.659622061675994e-06,3.7038732727978642e-06,5.7949950582762234e-06,7.742046256709046e-06,4.077827378784112e-05,1.0348605123056132e-05,1.7224129610345548e-05,2.7908433213970815e-05,5.802688143792997e-06,1.4567216022716896e-05,1.622332851548928e-05,4.744538539114273e-06
22.679999999999954,7.954655287534252e-06,3.7101676175173756e-06,5.453002225645302e-06,1.1941774136895825e-05,3.638132294199181e-05,1.0512957512294937e-05,1.867742432561196e-05,0.00011000209788297373,5.920881980851315e-06,1.3264985628798816e-05,1.4534345586270092e-05,4.124895101872047e-06
22.742307692307648,7.807787193788348e-06,3.782202912816501e-06,7.786106690588213e-06,9.776518917921824e-06,5.258716707885469e-05,1.0408751062366643e-05,1.6936687846680342e-05,0.0001652084126324856,6.329315147250251e-06,1.2359998468506698e-05,1.6848567003791004e-05,4.722158658646928e-06
22.80461538461534,1.2117316450381091e-05,3.7262531823974617e-06,9.17435977214609e-06,1.0747247015530093e-05,0.0001646824846316027,9.58139417193138e-06,2.4583619462722103e-05,0.00015653340454567418,6.209722550683712e-06,1.0365390055966372e-05,1.8805409340908832e-05,7.308435694379037e-06
22.86692307692303,1.6277180133765038e-05,3.6213474023346256e-06,1.0475191357528502e-05,1.6468808046946983e-05,0.000453795110171266,1.0547926061121871e-05,2.4980862679058192e-05,0.00012293837893035214,6.893708191787103e-06,1.1993527674292182e-05,1.4776328159153233e-05,8.683400710178072e-06
22.929230769230724,1.771368984672487e-05,3.6444266650429804e-06,9.914295158589918e-06,1.1741753825352437e-05,0.000622255602775823,1.0470995158584629e-05,1.1182256338078863e-05,4.9158147004627986e-05,6.4712876020204625e-06,1.4342018285162795e-05,1.6033798731266793e-05,8.346303523865117e-06
22.991538461538415,1.77654433770158e-05,3.729050666834155e-06,6.9538542007308026e-06,6.209023185969424e-06,0.0003937631295760487,1.0044378351873698e-05,5.4187329910841225e-06,2.3417766562990513e-05,5.605465262448206e-06,1.1990030823956962e-05,1.69702576073405e-05,7.733653799372556e-06
23.05384615384611,1.1562714597583105e-05,3.7059713870727744e-06,5.7502352641828715e-06,6.440515249532078e-06,0.0002067748792455859,1.0608072051591458e-05,1.5414854690950126e-05,2.0275488950479333e-05,5.626446438592817e-06,1.0942371796100285e-05,1.5026703294533188e-05,8.974339417259595e-06
23.1161538461538,1.1573904535803573e-05,3.6800946238220906e-06,6.444711478792442e-06,6.484575701411662e-06,0.00015278756952928537,9.552020591267289e-06,3.135144082738369e-05,2.573618423393024e-05,5.620152107847313e-06,1.1209531818678897e-05,1.636879788833312e-05,1.6646448436337854e-05
23.17846153846149,2.025590648718397e-05,3.7563261675662336e-06,5.965641757654794e-06,6.576193410505008e-06,0.00010823478560055833,1.0189148328028827e-05,2.4501793031106445e-05,2.8428066387675698e-05,6.409043528066149e-06,1.161306935794452e-05,1.617437253287335e-05,2.3335240685658696e-05
23.240769230769185,2.942117446001665e-05,3.7493324479479877e-06,6.371277428248353e-06,6.916088091202255e-06,8.483520275532896e-05,1.0098929327284622e-05,1.00485745773445e-05,2.037899593669105e-05,5.426426085127408e-06,1.1951565341898156e-05,1.6754851126658348e-05,2.1528763275332117e-05
23.303076923076876,2.4548650930000804e-05,3.7654180052489514e-06,5.45230284364114e-06,8.205030395439887e-06,0.00010166768400263018,1.025978487281994e-05,1.0823478607354294e-05,1.4266486100211751e-05,5.646028843860525e-06,1.1392767238286675e-05,1.5170074523969864e-05,1.2383777140219839e-05
23.365384615384567,1.3426540567706979e-05,3.8059815741083486e-06,5.499860128566069e-06,8.205729772470249e-06,0.0001176427352843253,1.0780117528478665e-05,1.2969850756168929e-05,1.1757139952095485e-05,6.573395907594204e-06,1.1646639222817612e-05,1.5123216619864858e-05,6.1411841182727285e-06
23.42769230769226,9.098128256823656e-06,3.7318481465338967e-06,6.871328296161513e-06,7.532234692083269e-06,8.600804894124774e-05,9.824076202846755e-06,1.080179803262619e-05,1.2073256057713403e-05,6.036977698897772e-06,1.1699791495326886e-05,1.6388380275363563e-05,5.709671683717943e-06
23.489999999999952,7.646232324276525e-06,3.7108669952582812e-06,5.876821549814318e-06,1.1729864485943153e-05,6.803838888250388e-05,1.012620484672766e-05,7.1140103566828355e-06,5.4207611839747945e-05,6.137687231936677e-06,1.1055670009578004e-05,1.626319272176602e-05,4.815874473488672e-06
23.552307692307647,7.767923001011923e-06,3.7241550595960384e-06,6.098522417374852e-06,1.0406652967513233e-05,4.21056812522617e-05,9.589087288712033e-06,6.516047416956402e-06,9.613705161560422e-05,6.725159590814656e-06,1.1189949410569018e-05,1.6503077263981445e-05,5.771216409537298e-06
23.614615384615337,7.519646008565436e-06,3.736743756614184e-06,6.670608569928996e-06,5.687991156359355e-06,4.0825830811760015e-05,9.807291295989747e-06,6.995117133830793e-06,6.861187408352028e-05,6.050265777209537e-06,1.1817285970749936e-05,1.6107932151972666e-05,5.3494951906429835e-06
23.67692307692303,8.06095980626272e-06,3.779405449222395e-06,7.705678902188614e-06,5.953752448088305e-06,3.1934017330096745e-05,1.0408751059050777e-05,7.027288245116855e-06,2.3582818308417093e-05,5.204025838404884e-06,1.3986038037216986e-05,1.5893924368981517e-05,4.036074877689089e-06
23.739230769230723,7.914091701621829e-06,3.701775166102076e-06,6.1901401437580715e-06,6.7936980286731344e-06,1.5786920489565166e-05,1.035769691857998e-05,8.195239200385155e-06,1.0211528209917257e-05,5.71806413631748e-06,1.450147506550555e-05,1.5892525652816403e-05,4.328412303067353e-06
23.801538461538414,9.706581705160034e-06,3.727651919878857e-06,5.573993549745637e-06,5.6726049902996085e-06,1.426998297802129e-05,9.752040892389383e-06,1.4387477406548518e-05,2.581661208012065e-05,6.2209124877199425e-06,1.3515360739546623e-05,1.6232420368330243e-05,4.63683528669397e-06
23.863846153846104,1.2962857003155174e-05,3.785000401042756e-06,6.50975306252614e-06,4.917283405821612e-06,1.7319244228512314e-05,1.0081445010949134e-05,2.642646415248843e-05,3.663029938110185e-05,6.035578954784645e-06,1.4560222228965359e-05,1.6589799350204734e-05,5.194934022512143e-06
23.9261538461538,1.3347511568895243e-05,3.66820530170268e-06,5.684494298445012e-06,4.820070699433169e-06,1.8282279252446188e-05,1.0085641253236115e-05,2.8844892023490352e-05,4.861823205383568e-05,6.202728820170478e-06,1.4078355033101767e-05,1.631844309220772e-05,5.309631006866766e-06
23.98846153846149,1.142773585840473e-05,3.694781438904708e-06,6.296444655144266e-06,5.347397066657322e-06,1.621283797940502e-05,1.019404390329252e-05,1.7226927105914077e-05,9.644267706245083e-05,6.4656926291206675e-06,1.2364194710083135e-05,1.5875041353060244e-05,5.009600494550644e-06
24.050769230769184,1.341814805755348e-05,3.866127524550696e-06,1.056471095400487e-05,6.451005827064667e-06,3.498537670670506e-05,1.051225811015873e-05,1.193198288641876e-05,0.00011835749351689629,6.555911622996291e-06,1.2413150792885594e-05,1.7912311486156794e-05,5.778909502396345e-06
24.113076923076875,2.1516174515075668e-05,3.8458457443842535e-06,1.2816688303966355e-05,9.597479703415956e-06,0.00011031122023984116,1.3320236000898451e-05,2.4498995322611943e-05,0.00014596729463344597,5.843951083998415e-06,1.2819485817298452e-05,1.3762239021038643e-05,5.893606462355668e-06
24.175384615384566,2.183998369294689e-05,3.7010757750977064e-06,1.0379377480755162e-05,1.722552835374813e-05,0.000191804124593394,1.3351707725206552e-05,2.368073028099123e-05,0.00014193821356111395,7.011202680947311e-06,1.2080249750804721e-05,1.6884234852672838e-05,4.706772465823406e-06
24.23769230769226,2.2580618511369722e-05,3.708069496610733e-06,8.61066606461236e-06,1.6148495744279976e-05,0.0003616060114628302,1.0030390920926872e-05,1.0834668493468295e-05,7.151986230648314e-05,7.631545498772615e-06,1.3583899211037457e-05,1.8338228902100202e-05,4.954350110845477e-06
24.29999999999995,2.2234429495190017e-05,3.655616615105828e-06,6.2125200280149785e-06,1.0138094163162729e-05,0.0003222740386433998,1.0138793558667204e-05,1.0529043000436408e-05,5.0152653802371105e-05,5.35509015856898e-06,1.391050587784548e-05,1.3649640192407258e-05,6.178250800796074e-06
24.362307692307642,1.1220721803795186e-05,3.610157436166143e-06,5.513148206877835e-06,8.033684311451831e-06,0.00016032749652647265,1.0874532715140124e-05,3.056884361048636e-05,4.445696957707431e-05,5.360685149706039e-06,1.1831972771858546e-05,1.5925396129053602e-05,8.584789286203432e-06
24.424615384615336,1.1707484566632804e-05,3.641629161658481e-06,6.568500309119448e-06,6.018794046269704e-06,0.00011737697423536512,1.0799000549373734e-05,3.41363393386492e-05,2.8525978523911515e-05,5.8810177904433655e-06,1.1566910819264346e-05,1.5505772976590983e-05,1.8056382144730303e-05
24.486923076923027,2.0102744086851015e-05,3.6689046680749016e-06,6.136987874327815e-06,7.121703411883118e-06,0.00014175637665398238,9.775120167413813e-06,1.420004577283862e-05,2.6886650986076195e-05,5.858637893870385e-06,1.1414447747881695e-05,1.6201647969182887e-05,2.6269105562685504e-05
24.54923076923072,2.3863965823522902e-05,3.6619109522462168e-06,6.2160168946926815e-06,8.94776327105736e-06,0.00016370965860801334,1.0070954437442954e-05,9.367386418309328e-06,2.286736101761259e-05,6.243991775534141e-06,1.182707716840999e-05,1.5903715578720797e-05,2.3177182577190554e-05
24.611538461538412,2.39919509001633e-05,3.6493222590176326e-06,5.438315406773124e-06,8.472889801917441e-06,0.0001428543907406284,1.0093334337094954e-05,1.2049477410869258e-05,1.8625670786557673e-05,6.074743774793963e-06,1.2129905186005392e-05,1.5939383528973396e-05,1.3095737613610937e-05
24.673846153846103,2.0843378831377397e-05,3.6919839544680145e-06,6.572696527484823e-06,8.158172471202837e-06,0.00015365129321433338,1.0101726814563487e-05,1.4659533083497915e-05,1.4092342553576979e-05,5.462094035616853e-06,1.141234966439697e-05,1.7091248957020373e-05,5.8299636359985625e-06
24.736153846153798,1.449867747993494e-05,3.6744996587382654e-06,6.89790443146876e-06,9.328221570351996e-06,8.129917849236298e-05,1.0075850076892341e-05,1.2563515684149706e-05,2.0043297433621394e-05,5.829963620366622e-06,1.1259187226642098e-05,1.5701597124007095e-05,5.0326797444692295e-06
24.79846153846149,9.310037866328002e-06,3.6744996558960946e-06,5.28095674544223e-06,7.893809944429602e-06,5.4452391824355574e-05,9.552719965455481e-06,8.526741435114597e-06,3.825563946501613e-05,6.054461991311655e-06,1.1696994029127458e-05,1.491830063476603e-05,4.443808664215491e-06
24.86076923076918,7.059459318270456e-06,3.7619211430713524e-06,6.818176063205783e-06,6.3502962975784765e-06,6.328196128677633e-05,1.036469065738288e-05,6.806286714796291e-06,5.126465501135158e-05,6.392258585918853e-06,1.105567003255222e-05,1.541065843753131e-05,4.115803254241731e-06
24.923076923076874,6.3747742908996465e-06,3.7395412353665354e-06,5.861435384465115e-06,7.198634333131319e-06,5.6498054409814816e-05,1.0832570409509874e-05,6.441914013303555e-06,3.709538162794956e-05,5.934170038083645e-06,1.174804814946621e-05,1.653245090362058e-05,4.429821211952382e-06
24.985384615384564,7.07694359102599e-06,3.66820530265007e-06,5.515246300783853e-06,9.49537146771225e-06,3.717301183717344e-05,1.0652132493286596e-05,5.539724337684978e-06,1.5044187629579634e-05,5.361384508499138e-06,1.2295656323383735e-05,1.5534447266437232e-05,5.794995066329041e-06
25.04769230769226,7.308435669036347e-06,3.775209204566939e-06,6.427926558198275e-06,8.051168619023959e-06,2.0858764975647168e-05,1.0601777704266624e-05,8.00640878442967e-06,1.1903308657916039e-05,6.17475393719739e-06,1.142493837373119e-05,1.5630960552452202e-05,6.234899950404345e-06
25.10999999999995,8.234403999078192e-06,3.848643249663534e-06,5.937666916603727e-06,5.849546055950819e-06,1.6366000276946125e-05,9.432427979305658e-06,1.4513364324623506e-05,1.626529079364521e-05,6.040474548048754e-06,1.1792108583819072e-05,1.6719882498487475e-05,4.864830504184662e-06
25.17230769230764,1.0773823146574084e-05,3.815073408001505e-06,5.941863138284968e-06,5.9782304852262765e-06,1.9964268494021552e-05,9.768825840931564e-06,2.12273340006656e-05,2.4964777033176233e-05,5.56630045001801e-06,1.2001220748913966e-05,1.5643549238575362e-05,4.641730898195344e-06
25.234615384615335,1.1385074148506647e-05,3.7752092197251843e-06,5.588680355354351e-06,4.3228173351413565e-06,2.235262334669604e-05,1.0335317016559505e-05,2.2911421378542703e-05,2.740068916295968e-05,5.761425197666388e-06,1.2330624907737804e-05,1.5535146609361542e-05,4.945258270557436e-06
25.296923076923026,9.558314904486072e-06,3.7633198848160038e-06,5.596373446792313e-06,7.330116229553596e-06,1.8808906164717126e-05,1.0480086971161502e-05,1.598694078571346e-05,7.423552325533934e-05,6.074743788294275e-06,1.332443225123825e-05,1.623381913020694e-05,4.645927118929194e-06
25.359230769230717,9.909399565799504e-06,3.93746346910954e-06,8.382670866306323e-06,9.526843177809496e-06,2.3050596389850853e-05,1.0712977796364005e-05,8.759632261027642e-06,0.00011103646946134897,5.918783865865862e-06,1.4270682292523892e-05,1.6968159542329886e-05,4.935467054896965e-06
25.42153846153841,1.4018209093317561e-05,3.76961422811443e-06,9.532438161841128e-06,9.349202711206317e-06,6.936929376972027e-05,1.019893948755642e-05,1.8396976189194446e-05,0.00011888202262137308,5.34739707565753e-06,1.2125708904401715e-05,1.754654001236607e-05,7.360888570673296e-06
25.483846153846102,1.941316341482017e-05,3.5472139766549542e-06,7.15317514779675e-06,1.1642442957793265e-05,0.00018814640975980032,9.533836877058851e-06,2.52333358607378e-05,0.00010738994436560271,6.280359092395808e-06,1.1608873144552945e-05,1.4068563894890454e-05,1.121792420804013e-05
25.546153846153796,1.898864475767444e-05,3.68149337361956e-06,8.778515294712481e-06,1.9478904403532244e-05,0.0003197101414386339,9.833168041476862e-06,1.5031598870270576e-05,4.8830840938762776e-05,6.477581963082457e-06,1.2608275482269466e-05,1.6402367728574062e-05,1.1981638264776014e-05
25.608461538461487,1.5392474785850634e-05,3.7178607120343563e-06,8.906500343878558e-06,1.8881640837046613e-05,0.000320107385343249,1.0740253300648797e-05,6.597174533122067e-06,2.0806312114511154e-05,5.236896345669114e-06,1.1136797126454213e-05,1.8965565493545e-05,1.0448615241405907e-05
25.670769230769178,1.085425091176262e-05,3.7269525497170737e-06,5.213117669219021e-06,8.702983133446197e-06,0.0002965637320533195,1.0690597910449166e-05,8.322524866836526e-06,2.3277192806384998e-05,5.453701592017523e-06,1.1316535699516332e-05,1.5238612947617488e-05,1.1449416341235974e-05
25.733076923076872,7.995218867762332e-06,3.710167628886059e-06,5.502657622713514e-06,4.789298355708146e-06,0.00019991753772027703,1.0045777091249875e-05,2.018177314155878e-05,2.5522875787468517e-05,5.668408734986012e-06,1.2267681406304594e-05,1.580020852998132e-05,1.6695404521982482e-05
25.795384615384563,1.6171575013856908e-05,3.7066707638662893e-06,6.067750078623627e-06,4.894204125586536e-06,5.3038261934072274e-05,1.0049973306536231e-05,2.1707802445073792e-05,2.803781696580169e-05,6.132092265194918e-06,1.1781617979049013e-05,1.6019811310267564e-05,2.4886447456869593e-05
