wave0,wave1,wave2,wave3,wave4,wave5,wave6,wave7,wave8,wave9,wave10,wave11
928.15,2452.55,928.15,2820.1,928.17,39530.4,928.199,34999.6,928.199,38395.5,928.238,12624
927.381,2267.14,927.381,2868.9,927.4,38574.1,927.43,34550.7,927.43,38011.6,927.471,12458.1
926.613,2185.43,926.613,2754.55,926.633,38583.4,926.66,34326.6,926.66,36593.4,926.701,12631.5
925.844,2146.02,925.844,2474.43,925.863,37448.2,925.893,34125.3,925.893,37175.3,925.932,12291.1
925.074,2126.13,925.074,2555.26,925.094,37496.7,925.123,33514.5,925.123,36053.6,925.164,12487.2
924.305,2184.25,924.305,2619.8,924.324,36869.2,924.354,33944.1,924.354,36212.8,924.395,12046.1
923.537,2131.86,923.537,2486.09,923.557,37548.3,923.584,33840.5,923.584,35757.9,923.625,11943.2
922.768,2001.51,922.768,2625.36,922.787,36420.5,922.814,33561.4,922.814,36238.8,922.855,12168.5
921.998,2098.61,921.998,2537.18,922.018,36605.6,922.045,33581.4,922.045,35296.7,922.086,12179.3
921.229,1997.54,921.229,2471.76,921.248,36573.1,921.275,33370.7,921.275,35511.2,921.316,12040.7
920.457,2013.42,920.457,2565.49,920.477,36680.2,920.506,33692.7,920.506,35702.9,920.547,12136
919.688,2035.79,919.688,2565.03,919.707,36592.4,919.736,33030.8,919.736,35164,919.777,12156.5
918.918,2048.41,918.918,2460.69,918.938,36264.4,918.967,33677.3,918.967,34956.4,919.006,11894.6
918.148,1911.72,918.148,2395.33,918.166,36537,918.195,32781.9,918.195,34768.3,918.236,12142.4
917.377,2057.41,917.377,2404.63,917.396,35959.3,917.426,33155.7,917.426,34956.8,917.465,12156.4
916.607,2047.3,916.607,2530.74,916.627,36351.9,916.654,32607.9,916.654,34794.8,916.695,12157.5
915.836,1926.91,915.836,2397.28,915.855,36283.7,915.885,33267.1,915.885,35181,915.924,11837.4
915.064,1864.94,915.064,2451.99,915.084,36251.3,915.113,32570.2,915.113,34577.9,915.154,12101.2
914.295,1893.79,914.295,2399.66,914.314,35829.7,914.342,33183.8,914.342,34990,914.383,12024.5
913.523,1938.84,913.523,2379.77,913.543,35978.8,913.572,32983.3,913.572,34471.4,913.611,12177.9
912.752,1867.17,912.752,2411.76,912.771,36166.9,912.801,33343.6,912.801,34244.8,912.84,11922.9
911.98,1928.41,911.98,2505.32,912,36072.8,912.029,32896.8,912.029,34695.6,912.068,12086
911.209,1960.47,911.209,2372.01,911.229,35716.4,911.258,33078.9,911.258,35188.4,911.297,11905.6
910.438,1905.04,910.438,2488.22,910.457,36377.4,910.486,32755.4,910.486,34129.1,910.525,12026.6
909.666,1888.5,909.666,2474.81,909.686,35991.8,909.715,32840.2,909.715,34602.4,909.754,11933.7
908.895,1936.74,908.895,2432.26,908.914,35677.7,908.941,33375.2,908.941,34304.7,908.982,11957.5
908.121,1839.25,908.121,2386.49,908.141,36448.4,908.17,32517.5,908.17,34700,908.211,11871.2
907.35,1893.96,907.35,2447.58,907.369,35752.2,907.398,32952,907.398,34690.6,907.438,11752.5
906.576,1925.99,906.576,2418,906.596,36001.5,906.625,32800.4,906.625,34713.4,906.666,12087
905.805,1870.62,905.805,2446.69,905.824,36118,905.854,32830.1,905.854,34927.3,905.893,11965.1
905.031,1808.8,905.031,2410.66,905.051,35778.2,905.08,32649.4,905.08,34820.7,905.121,11950
904.26,2044.65,904.26,2471.69,904.279,35432.1,904.309,32779.4,904.309,34587.9,904.348,11873.4
903.486,1876.08,903.486,2655.62,903.506,35917.4,903.535,32880.3,903.535,34465.2,903.576,11945.7
902.713,1756.08,902.713,2490.21,902.732,35691,902.762,33100.7,902.762,34850.4,902.803,11998.5
901.939,1901.27,901.939,2557.66,901.959,35917.4,901.988,32473.9,901.988,34621,902.029,12093.3
901.166,1884.76,901.166,2440.82,901.186,35649,901.215,32600.6,901.215,34721.4,901.256,11900.4
900.393,1952.3,900.393,2505.02,900.412,35716.9,900.441,32775.8,900.441,34702.2,900.482,11878.9
899.619,1968.11,899.619,2527.2,899.639,35739.6,899.668,32643.8,899.668,34327.6,899.709,11844.4
898.846,1883.75,898.846,2510.58,898.865,35810.7,898.895,33313.3,898.895,34996.7,898.936,11768
898.072,1847.87,898.072,2523.05,898.092,36030.4,898.121,32867.9,898.121,34563.9,898.162,11992
897.299,1870.15,897.299,2541.98,897.318,36143.4,897.348,32477.6,897.348,34470.5,897.387,11960.8
896.523,1801.99,896.523,2628.71,896.543,35213.3,896.572,32413.6,896.572,34277,896.613,11958.6
895.75,1788.75,895.75,2654.07,895.77,35991.5,895.799,32704.8,895.799,34387.1,895.838,11837
894.975,1891.73,894.975,2592.26,894.994,35620.3,895.023,32818.4,895.023,34842.5,895.064,11686.4
894.201,1875.25,894.201,2465.91,894.221,35575.1,894.25,32718.9,894.25,34713.6,894.289,11971.5
893.426,1745.83,893.426,2517.1,893.445,35562.2,893.475,32606.5,893.475,34607.3,893.516,11908
892.65,1822.95,892.65,2536,892.67,35620.4,892.699,32287.6,892.699,34533.3,892.74,11873.6
891.877,1793.59,891.877,2529.1,891.896,35801,891.926,32781.8,891.926,34717.4,891.965,11926.3
891.102,1864.23,891.102,2506.06,891.121,35968.8,891.15,32643.7,891.15,34407.9,891.189,11991.9
890.326,1925.16,890.326,2544.31,890.346,35720.4,890.375,32199.2,890.375,34475.9,890.416,11909.1
889.551,1818.42,889.551,2431,889.57,35681.7,889.6,32048.3,889.6,34418.1,889.641,11919.9
888.775,1885.78,888.775,2504.71,888.795,35314.3,888.824,32261.7,888.824,34440.9,888.863,11869.4
888,1824.21,888,2581.61,888.02,35623.7,888.049,32114.1,888.049,34302.5,888.088,11528.8
887.223,1865.77,887.223,2545.69,887.242,35059.8,887.271,32095.4,887.271,34119.1,887.312,11581.5
886.447,1775.22,886.447,2551.68,886.467,35378.9,886.496,32492.4,886.496,34061.4,886.537,12030.5
885.672,1861.87,885.672,2470.69,885.691,35337.1,885.721,32647.6,885.721,34622.2,885.76,11954.2
884.895,1855.1,884.895,2563.64,884.914,35546.5,884.943,32760.9,884.943,34535.5,884.984,11733.1
884.119,1848.32,884.119,2608.26,884.139,35231,884.168,31946.7,884.168,34687,884.209,11537.7
883.342,1764.28,883.342,2475.79,883.361,35392,883.391,32510.8,883.391,34175.3,883.432,11571.1
882.566,1876.63,882.566,2600.88,882.586,35134.6,882.615,32192.7,882.615,34323.6,882.654,11697.7
881.789,1795.83,881.789,2529.61,881.809,35302,881.838,32277,881.838,34092.1,881.879,11612
881.012,1811.59,881.012,2487.32,881.031,35205.5,881.061,32152.1,881.061,34137.5,881.102,11632.4
880.234,1759.79,880.234,2490.09,880.254,35250.7,880.283,32445.5,880.283,33957.6,880.324,11466.2
879.457,1759.47,879.457,2496.07,879.477,35241.1,879.506,32246.6,879.506,33639.4,879.547,11734.3
878.68,1887.8,878.68,2640.34,878.699,34700.9,878.729,32121.8,878.729,34061.1,878.77,11532.8
877.902,1858.52,877.902,2655.94,877.922,35299.1,877.951,32260.7,877.951,33624.1,877.992,11707.6
877.125,1916.05,877.125,2565.45,877.145,34749.4,877.174,32110.2,877.174,34302.8,877.215,11702.3
876.348,1787.13,876.348,2513.56,876.367,35450.3,876.396,32143,876.396,33833.7,876.438,11777.3
875.57,1889.65,875.57,2564.52,875.59,34791.5,875.619,32105.1,875.619,34030.1,875.658,11540.6
874.791,1857.18,874.791,2621.89,874.811,35533.9,874.84,31771.5,874.84,33731.5,874.881,11660.6
874.014,1754.04,874.014,2570.02,874.033,34737.2,874.062,32064.6,874.062,34155.9,874.104,11706.7
873.234,1930.38,873.234,2595.25,873.254,35325.1,873.283,31638,873.283,33822.1,873.324,11505.4
872.457,1714.87,872.457,2703.97,872.477,35004,872.506,32011.2,872.506,34101.9,872.545,11728.1
871.678,1907.21,871.678,2709.9,871.697,35148.6,871.727,31671.5,871.727,33761.8,871.768,11793.4
870.898,1762.4,870.898,2478.28,870.918,34628.6,870.947,31771.7,870.947,33980.4,870.988,11492.8
870.119,1797.39,870.119,2548.44,870.141,35007.5,870.17,31669.7,870.17,33431.8,870.209,11519.6
869.342,1861.25,869.342,2519.1,869.361,34593.6,869.391,31920.7,869.391,33576.6,869.43,11392.3
868.562,1918.66,868.562,2589.23,868.582,35023.8,868.611,31664.7,868.611,33846.5,868.65,11730.4
867.783,1729.05,867.783,2559.89,867.803,34356.6,867.832,31755.2,867.832,33699.2,867.871,11638.4
867.004,1837.79,867.004,2687.72,867.023,34212.5,867.053,32471.1,867.053,33776.5,867.092,11431.1
866.223,1725.22,866.223,2693.65,866.242,34498.1,866.271,31493.6,866.271,33747.9,866.312,11618.2
865.443,1859.57,865.443,2600.18,865.463,34434.2,865.492,32065,865.492,33924.6,865.533,11702.7
864.664,1772.68,864.664,2548.43,864.684,34844.7,864.713,31668.1,864.713,32982.4,864.754,11620.4
863.883,1762.74,863.883,2547.97,863.904,34630,863.934,32095.1,863.934,33848.2,863.973,11432.4
863.104,1804.08,863.104,2656.45,863.123,34761.6,863.152,31736.8,863.152,33098.7,863.193,11763.6
862.322,1739.68,862.322,2601.51,862.344,34547,862.373,31948.9,862.373,34047.5,862.412,11431.5
861.543,1806.63,861.543,2642.68,861.562,34595.2,861.592,31789.4,861.592,33416.7,861.633,11621.6
860.762,1758.27,860.762,2597.37,860.781,34018.9,860.811,31786.8,860.811,33939.1,860.852,11308.8
859.98,1761.15,859.98,2670.54,860.002,34493.1,860.031,31774.7,860.031,33254.1,860.07,11364.4
859.201,1732.02,859.201,2580.42,859.221,33801.7,859.25,32031.5,859.25,33504.2,859.291,11631.3
858.42,1843.74,858.42,2522.33,858.439,34912.7,858.469,31670.4,858.469,33043.6,858.51,11517.2
857.639,1785.8,857.639,2595.49,857.658,34157.5,857.688,31971.9,857.688,33696.9,857.729,11566.3
856.857,1721.48,856.857,2726.21,856.877,34560.9,856.906,31201.3,856.906,33207.6,856.947,11650.6
856.076,1727.57,856.076,2652.13,856.096,34173.9,856.125,31889.9,856.125,33569.5,856.166,11549.3
855.295,1768.84,855.295,2683.64,855.314,34436.5,855.344,31765.8,855.344,33397.1,855.383,11550.4
854.512,1794.1,854.512,2705.54,854.531,34222.3,854.561,30954.1,854.561,33221.6,854.602,11516.4
853.73,1777.79,853.73,2551.57,853.75,34216.2,853.779,31437.8,853.779,33241.1,853.82,11485.5
852.949,1793.45,852.949,2608.65,852.969,34612.8,852.998,31205.1,852.998,33228.7,853.039,11425.9
852.166,1726,852.166,2592.2,852.186,34114.3,852.215,31362.5,852.215,33126.8,852.256,11551.7
851.385,1684.15,851.385,2582.14,851.404,34357.4,851.434,31321.6,851.434,33408.5,851.475,11527.2
850.602,1859.57,850.602,2607.24,850.621,33961.3,850.65,31450.2,850.65,33166,850.691,11317.4
849.818,1750.62,849.818,2670.66,849.838,34389.7,849.867,31482.8,849.867,33092.9,849.908,11545.4
849.037,1814.19,849.037,2644.62,849.057,34140.7,849.086,31678.3,849.086,33578.8,849.127,11390
848.254,1743.6,848.254,2609.02,848.273,34246.3,848.303,31535.3,848.303,32873.3,848.344,11649.8
847.471,1720.94,847.471,2538.3,847.49,33959.1,847.52,31954.2,847.52,33413.3,847.561,11494.4
846.688,1755.74,846.688,2525.07,846.707,34668,846.736,31118.4,846.736,33257.3,846.777,11422.1
845.904,1755.42,845.904,2499.08,845.924,34262.8,845.953,32102.2,845.953,34007.7,845.994,11436
845.121,1771.06,845.121,2693.29,845.141,34342.7,845.17,31123.1,845.17,32705.9,845.211,11635
844.336,1780.31,844.336,2635.37,844.357,34113.2,844.387,31353.6,844.387,33708.2,844.428,11307.4
843.553,1770.42,843.553,2657.22,843.572,34346.2,843.602,31095.9,843.602,32923.7,843.643,11624.4
842.77,1715.88,842.77,2710.96,842.789,33890.3,842.818,31744.1,842.818,33724.7,842.859,11383.1
841.984,1817.61,841.984,2611.62,842.006,34432.6,842.035,31100.6,842.035,33253,842.076,11565.9
841.201,1775.83,841.201,2598.39,841.221,34311.6,841.25,31777.2,841.25,33575.4,841.291,11471.4
840.416,1801.01,840.416,2744.55,840.438,34302.2,840.467,31427.2,840.467,32982.8,840.508,11364.1
839.633,1778.38,839.633,2642.07,839.652,34174.9,839.682,31542.6,839.682,33505.8,839.723,11435.4
838.848,1822.66,838.848,2769.05,838.867,34366.3,838.896,31658,838.896,33082.3,838.938,11446
838.062,1819.15,838.062,2666.6,838.082,33792.9,838.113,31349.6,838.113,33592.5,838.152,11364.3
837.279,1793.33,837.279,2720.26,837.299,34063.9,837.328,31700.6,837.328,33401.6,837.369,11422.8
836.494,1716.58,836.494,2646.52,836.514,34567.3,836.543,31640.7,836.543,33526.1,836.584,11468.5
835.709,1658.95,835.709,2649.22,835.729,34373.2,835.758,31762.4,835.758,33344.9,835.799,11415.4
834.924,1805.09,834.924,2734.7,834.943,34185.5,834.973,31632.5,834.973,33377.1,835.014,11483.4
834.137,1858.88,834.137,2737.39,834.158,34424.4,834.188,31881.4,834.188,33504.7,834.229,11643.7
833.352,1934.92,833.352,2631.87,833.371,34564.5,833.4,31410.9,833.4,33479.5,833.441,11584.3
832.566,1800.93,832.566,2669.58,832.586,34402.4,832.615,32105.3,832.615,34023.9,832.656,11416.7
831.781,1791.06,831.781,2805.89,831.801,34790.6,831.83,31689,831.83,33499.2,831.871,11796.4
830.994,1863.89,830.994,2776.75,831.014,34386.7,831.043,31715.1,831.043,33919.4,831.084,11565.2
830.209,1860.37,830.209,2795.33,830.229,34867,830.258,31563.1,830.258,33464.8,830.299,11690.4
829.422,1901.37,829.422,2759.85,829.441,34355.1,829.471,32018.4,829.471,34037.4,829.512,11440.2
828.635,1926.46,828.635,2625.83,828.656,35197.7,828.686,31402.2,828.686,33487.6,828.727,11635.2
827.85,1792.61,827.85,2796.99,827.869,34727.3,827.898,31647.6,827.898,34393.8,827.939,11458.3
827.062,1859.02,827.062,2637.59,827.082,35362.9,827.111,31476.6,827.111,33831.4,827.152,11850.3
826.275,1801.49,826.275,2697.48,826.295,34727.4,826.324,31699.7,826.324,34187.5,826.365,11435.1
825.488,1832.93,825.488,2798.64,825.508,34613.1,825.537,31824.1,825.537,33727,825.578,11855.5
824.701,1737.32,824.701,2728.26,824.721,34829.1,824.75,31939.1,824.75,34562.5,824.791,11386.5
823.914,1803.69,823.914,2721.41,823.934,34711.6,823.963,31504.6,823.963,33749.7,824.004,11721
823.127,1771.61,823.127,2911.41,823.146,34162.4,823.176,31886.2,823.176,34156.3,823.217,11582.4
822.34,1780.81,822.34,2904.54,822.359,34968.8,822.389,31426.5,822.389,33473.9,822.43,11424.7
821.551,1856.66,821.551,2675.5,821.57,34591.2,821.602,31754,821.602,34508.9,821.643,11638.5
820.764,1811.9,820.764,2798.76,820.783,34857.8,820.812,31843.4,820.812,33833,820.854,11645.9
819.975,1798.88,819.975,2674.52,819.996,34356.5,820.025,31996.3,820.025,34185.4,820.066,11669.1
819.188,1881.03,819.188,2807.26,819.207,34829.2,819.236,32044.4,819.236,33985.7,819.277,11762.2
818.398,1836.28,818.398,2800.41,818.42,34715.1,818.449,31610.4,818.449,34306.2,818.49,11576.1
817.611,1807.41,817.611,2707.95,817.631,34664.4,817.66,31595.2,817.66,34087.5,817.701,11678.6
816.822,1876.83,816.822,2942.06,816.842,34512.3,816.871,31468.9,816.871,34227.2,816.912,11667
816.033,1873.32,816.033,2855.94,816.053,34540.8,816.082,32043.3,816.082,33577.5,816.123,11468.4
815.244,1727.2,815.244,2750.84,815.264,34309.6,815.295,31609.6,815.295,33850.3,815.336,11640.6
814.455,1780.75,814.455,2870.74,814.475,34889.5,814.506,31537.3,814.506,33581.1,814.547,11527.6
813.666,1755.08,813.666,2867.05,813.686,34556.9,813.717,31389,813.717,33809.4,813.758,11690.2
812.877,1868.79,812.877,2847.53,812.896,34110.3,812.928,31798.3,812.928,33869.8,812.967,11466.3
812.088,1722.77,812.088,2796.34,812.107,34173.8,812.137,31472.6,812.137,33689.5,812.178,11619.4
811.299,1668.63,811.299,2792.67,811.318,34484.2,811.348,32033.7,811.348,33724.5,811.389,11535
810.508,1883.6,810.508,2858.64,810.529,34595.1,810.559,31755.6,810.559,33797.5,810.6,11643.7
809.719,1823.12,809.719,2851.79,809.738,34357.7,809.768,31895.4,809.768,34095.2,809.809,11723.9
808.928,1794.31,808.928,2816.46,808.949,34601.5,808.979,31642.8,808.979,33560.5,809.02,11626.8
808.139,1803.47,808.139,2755.83,808.158,34291.4,808.188,31681.3,808.188,33810.7,808.229,11362.1
807.348,1730.39,807.348,2894.52,807.367,34478.1,807.398,31805.3,807.398,33709.7,807.439,11521.4
806.559,1815.47,806.559,2767.48,806.578,34231.5,806.607,31970.3,806.607,33940.7,806.648,11500.3
805.768,1777.19,805.768,2849.2,805.787,34146.2,805.816,31920.2,805.816,33447.6,805.857,11460.2
804.977,1704.15,804.977,2772.8,804.996,34430.9,805.025,31468.6,805.025,33896.8,805.066,11628.9
804.186,1741.77,804.186,2901.9,804.205,34566.9,804.234,31753.7,804.234,33640.9,804.275,11838.6
803.395,1842.59,803.395,2850.8,803.414,34642.7,803.443,31058.9,803.443,33189.1,803.484,11618.3
802.604,1766.42,802.604,2714.4,802.623,34437.4,802.652,31584.1,802.652,33473.8,802.693,11603.6
801.812,1677.63,801.812,2676,801.832,33827.6,801.861,31483.6,801.861,33578.3,801.902,11443.5
801.021,1724.71,801.021,2890.31,801.041,34418.5,801.07,31616.8,801.07,33319.5,801.111,11479.3
800.229,1790.72,800.229,2867.67,800.25,33828,800.279,31709,800.279,33562.9,800.32,11410.9
799.438,1834.6,799.438,2835.58,799.457,34134.4,799.486,31810.6,799.486,33449.4,799.527,11557.2
798.646,1689.04,798.646,2692.99,798.666,33992.4,798.695,31807.9,798.695,33632.8,798.736,11690.9
797.854,1780.27,797.854,2768.26,797.873,34204,797.902,31227.7,797.902,33367.8,797.945,11417.3
797.061,1719.98,797.061,2811.94,797.082,33970.6,797.111,31689.1,797.111,33759.4,797.152,11563.6
796.27,1808.02,796.27,2682.05,796.289,34078,796.318,31285.7,796.318,33302,796.359,11694
795.477,1760.37,795.477,2672.1,795.496,33844.6,795.527,31677.5,795.527,33078.2,795.568,11496.2
794.684,1703.27,794.684,2800.94,794.703,34103.4,794.734,31697,794.734,33261.5,794.775,11623.5
793.891,1687.19,793.891,2693.2,793.912,34119.3,793.941,31435.7,793.941,33454.1,793.982,11451.1
793.098,1746.79,793.098,2825.14,793.119,34135.1,793.148,31553,793.148,33224.1,793.189,11493.1
792.305,1667.66,792.305,2685.92,792.326,33958.7,792.355,31544.1,792.355,33495.5,792.396,11645.5
791.512,1623.23,791.512,2836.72,791.531,33917.8,791.562,31718,791.562,32868.5,791.604,11514.1
790.719,1714.33,790.719,2842.5,790.738,34132.2,790.77,31406.5,790.77,33035.8,790.811,11493.1
789.926,1660.45,789.926,2810.48,789.945,34167,789.975,31366.1,789.975,32865.9,790.016,11415.4
789.133,1663.3,789.133,2740.66,789.152,33546.5,789.182,31489.6,789.182,33367.1,789.223,11378.7
788.338,1669.29,788.338,2768.51,788.357,34056.9,788.389,30983,788.389,33083.9,788.43,11556.1
787.545,1593.41,787.545,2802.64,787.564,33688.5,787.594,31493.8,787.594,33487.2,787.635,11377.7
786.75,1665.54,786.75,2751.76,786.77,34179.8,786.801,31015.8,786.801,32854.6,786.842,11854.2
785.955,1627.46,785.955,2782.73,785.977,33619.6,786.006,31422.5,786.006,32949.3,786.047,11301.1
785.162,1614.57,785.162,2668.92,785.182,34006.9,785.211,31205.9,785.211,32792.2,785.252,11447
784.367,1548.2,784.367,2718.78,784.387,33465.7,784.418,31329.3,784.418,32924.7,784.459,11284.4
783.572,1711.51,783.572,2825.26,783.592,33931.5,783.623,31241.8,783.623,32736.2,783.664,11436.5
782.777,1597.96,782.777,2720.94,782.797,33211.3,782.828,31119.7,782.828,32673.6,782.869,11443.9
781.982,1676.29,781.982,2726.73,782.002,33554.3,782.033,31195.8,782.033,33133.1,782.074,11514.1
781.188,1704.29,781.188,2792.26,781.207,33626.8,781.238,31523.4,781.238,32894.4,781.279,11257.3
780.393,1546.78,780.393,2637.71,780.412,33718.1,780.443,31156.1,780.443,32589.7,780.484,11500.5
779.598,1691.09,779.598,2838.4,779.617,33649.1,779.646,31059.2,779.646,32715.8,779.688,11435.5
778.803,1678.21,778.803,2853.59,778.822,33281.5,778.852,31443.3,778.852,32492.9,778.893,11565.4
778.006,1630.77,778.006,2749.38,778.025,33347.7,778.057,31362.1,778.057,33005.5,778.098,11230.2
777.211,1611.63,777.211,2777.15,777.23,33630.7,777.26,31083.1,777.26,32851.8,777.301,11457.5
776.414,1617.61,776.414,2691.84,776.434,33225.6,776.465,31020.8,776.465,32852.1,776.506,11615.6
775.619,1670.71,775.619,2867.21,775.639,33643.5,775.668,31395.2,775.668,33009.4,775.709,11440.8
774.822,1664.12,774.822,2722.25,774.842,33430.1,774.873,31015.8,774.873,32610.9,774.914,11423
774.025,1594.75,774.025,2759.43,774.045,33496.2,774.076,31113.7,774.076,32485.6,774.117,11201.2
773.229,1647.82,773.229,2580.02,773.25,33217,773.279,31148.8,773.279,32319.6,773.32,11400
772.434,1613,772.434,2636.03,772.453,33195.3,772.482,31353.4,772.482,32185,772.523,11510.9
771.637,1568.78,771.637,2726.54,771.656,32822.1,771.686,30735.8,771.686,32681.2,771.727,11251.5
770.84,1725.34,770.84,2716.63,770.859,33067.1,770.889,31389,770.889,32458.7,770.93,11443.9
770.041,1608.98,770.041,2697.31,770.062,33443.7,770.092,30799.9,770.092,32578.2,770.133,11328.9
769.244,1633.77,769.244,2615.29,769.266,33309,769.295,31314.8,769.295,32575.4,769.336,11317.5
768.447,1523.74,768.447,2624.22,768.467,33585.1,768.498,31127.2,768.498,32274.8,768.539,11205.6
767.65,1651.98,767.65,2680.16,767.67,32920.7,767.699,31243.8,767.699,32563.5,767.74,11278.8
766.852,1570.19,766.852,2748.62,766.873,33102.7,766.902,30783.6,766.902,32068.6,766.943,11637.2
766.055,1604.37,766.055,2732.45,766.074,33253.3,766.104,30931.6,766.104,32338.5,766.146,11180.7
765.256,1579.02,765.256,2663.03,765.275,33331.8,765.307,30744.2,765.307,31784.3,765.348,11360.4
764.459,1622.58,764.459,2725.19,764.479,32686.7,764.508,30744.8,764.508,32373.7,764.549,11464.8
763.66,1506.41,763.66,2696.5,763.68,33022.1,763.711,30357.1,763.711,31647.4,763.752,11274.8
762.861,1647.04,762.861,2752.37,762.881,32684.1,762.912,30827.5,762.912,32487.1,762.953,11260.2
762.062,1590.39,762.062,2689.25,762.082,33589.2,762.113,30862.6,762.113,32171.2,762.154,11521.1
761.264,1565.05,761.264,2629.29,761.285,32559.5,761.314,30972.7,761.314,32581.6,761.355,11015.1
760.465,1542.86,760.465,2519.27,760.486,32976,760.516,30513.3,760.516,32243.9,760.557,11088.1
759.666,1586.38,759.666,2791.03,759.686,32910.5,759.717,31030.2,759.717,32569.7,759.758,11264.5
758.867,1573.58,758.867,2634.1,758.887,33142.3,758.918,30846.2,758.918,32357.3,758.959,11171.7
758.068,1532.63,758.068,2793.14,758.088,32717.1,758.117,31134.6,758.117,32373.2,758.16,10947.6
757.27,1510.46,757.27,2701.94,757.289,32686.1,757.318,30853.7,757.318,32038.9,757.359,11302.1
756.469,1550.83,756.469,2673.3,756.488,32786.4,756.52,30673,756.52,32252,756.561,11012.3
755.67,1613.07,755.67,2704.07,755.689,33230.6,755.719,30529.8,755.719,31614.6,755.762,11251
754.869,1528.38,754.869,2616.06,754.889,32758.8,754.92,30574.2,754.92,32458.9,754.961,11214.6
754.07,1678.1,754.07,2546.84,754.09,32802.8,754.119,30806.1,754.119,32228,754.16,11271.9
753.27,1593.43,753.27,2649.47,753.289,32943.6,753.32,30569.3,753.32,31731.5,753.361,11044.9
752.469,1583.77,752.469,2689.6,752.488,32872,752.52,30691.7,752.52,31994.4,752.561,11333.4
751.668,1586.6,751.668,2698.48,751.689,32459.9,751.719,30773.6,751.719,32288.4,751.76,11015.9
750.867,1526.98,750.867,2554.34,750.889,32813.1,750.918,30396.3,750.918,31792.2,750.959,11310.5
750.066,1504.85,750.066,2591.34,750.088,32207.6,750.117,30990.2,750.117,32070.5,750.158,11230.4
749.266,1520.18,749.266,2628.32,749.287,32754.2,749.316,30700.5,749.316,31946,749.357,11053.5
748.465,1591.68,748.465,2509.24,748.484,32258.2,748.516,30598.1,748.516,31883.9,748.557,11263.7
747.664,1510.26,747.664,2652.32,747.684,32873.3,747.715,30686.1,747.715,31840.6,747.756,11155.5
746.863,1578.62,746.863,2598.8,746.883,32517.8,746.912,30668,746.912,32237.3,746.955,10953.8
746.061,1565.85,746.061,2588.96,746.082,32655.4,746.111,30453.4,746.111,32234.5,746.152,11229.4
745.26,1521.91,745.26,2588.49,745.279,32827.1,745.311,30613.1,745.311,32103.8,745.352,11230.5
744.457,1543.45,744.457,2563.07,744.479,32181.9,744.508,31044,744.508,31892.1,744.549,10826.2
743.656,1546.29,743.656,2662.36,743.676,32303.8,743.707,30957.2,743.707,32216.7,743.748,11107.9
742.854,1561.59,742.854,2496.67,742.873,32799.7,742.904,30618.1,742.904,32020.7,742.945,10925.1
742.051,1442.88,742.051,2571.01,742.072,32485.2,742.102,30942.8,742.102,32039.8,742.143,10920
741.25,1539.2,741.25,2592.34,741.27,32628.8,741.299,30363.8,741.299,32096.2,741.342,11095.6
740.447,1529.58,740.447,2660.4,740.467,32710,740.496,30819.3,740.496,31987.5,740.539,11224.4
739.645,1560.44,739.645,2628.77,739.664,32405,739.695,30536.4,739.695,32430.1,739.736,11023
738.842,1541.47,738.842,2618.94,738.861,32402.2,738.893,30733.2,738.893,32006.9,738.934,11073.9
738.039,1544.3,738.039,2609.12,738.059,32483.4,738.088,31154.1,738.088,32654.9,738.131,11146.6
737.234,1559.58,737.234,2552.61,737.256,32424.5,737.285,30703.3,737.285,32378,737.328,11153.9
736.432,1481.49,736.432,2645.51,736.453,32969.5,736.482,31214.3,736.482,32266.3,736.523,11108.3
735.629,1562.12,735.629,2427.2,735.648,32322.4,735.68,30754.2,735.68,32310.1,735.721,11212
734.824,1521.39,734.824,2607.21,734.846,32406.7,734.875,31093.9,734.875,32126.9,734.918,11247.3
734.021,1580.21,734.021,2665.83,734.041,32599.8,734.072,30708.7,734.072,32105.4,734.113,11061.7
733.217,1511.5,733.217,2531.61,733.238,32568.9,733.268,30867.9,733.268,32597.1,733.309,10829.5
732.414,1613.84,732.414,2500.05,732.434,32998.3,732.465,30579.3,732.465,31848,732.506,11132.3
731.609,1566.91,731.609,2655.04,731.629,32354.9,731.66,31130.2,731.66,32544.7,731.701,11251.5
730.805,1498.23,730.805,2620.36,730.826,32880.5,730.855,31149.3,730.855,31969.9,730.896,11031.8
730,1591.19,730,2545.29,730.021,32837.1,730.051,31034.8,730.051,32396,730.092,11001.8
729.195,1569.15,729.195,2541.71,729.217,32622.9,729.246,31069.5,729.246,32657.3,729.289,11077.5
728.391,1550.22,728.391,2423.19,728.412,32735,728.441,31595,728.441,32551.9,728.484,10988.4
727.586,1512.66,727.586,2512.82,727.607,32952.6,727.637,31169.9,727.637,32375.1,727.678,11064.1
726.781,1518.6,726.781,2506.15,726.801,32856.5,726.832,31400.2,726.832,32645.5,726.873,11096.2
725.977,1462.43,725.977,2356.65,725.996,32539.9,726.027,31701.8,726.027,32083.7,726.068,11258.7
725.172,1483.89,725.172,2440.04,725.191,32912.7,725.221,31500.4,725.221,32500,725.264,11101.4
724.365,1561.21,724.365,2551.32,724.387,33009.1,724.416,31193.5,724.416,32490.9,724.457,11201.8
723.561,1523.69,723.561,2495,723.58,32677.2,723.611,31535.4,723.611,32590.5,723.652,10995
722.754,1483.07,722.754,2448,722.773,32785.9,722.805,31433.4,722.805,32373.5,722.846,10968.1
721.949,1532.43,721.949,2444.45,721.969,32590.7,721.998,31554.8,721.998,32662.2,722.041,11127.4
721.143,1516.64,721.143,2614.58,721.162,32963.1,721.193,31536.6,721.193,32904.4,721.234,10898.9
720.336,1550.47,720.336,2499.36,720.355,33171,720.387,31744.7,720.387,32619.2,720.428,11058.2
719.529,1534.69,719.529,2464.8,719.551,32864.1,719.58,31475.4,719.58,32777.5,719.621,11257.7
718.723,1444.51,718.723,2641.03,718.744,32805.4,718.773,31677.3,718.773,32697.1,718.816,10995.2
717.916,1568.21,717.916,2628.15,717.938,33090.7,717.967,31711.7,717.967,32951.4,718.01,10983.9
717.109,1549.33,717.109,2361.18,717.131,33031.9,717.16,31625.3,717.16,32979.4,717.201,11390.9
716.303,1505.67,716.303,2447.49,716.322,33332.5,716.354,31842.6,716.354,32592.3,716.395,11113.1
715.496,1480.62,715.496,2626.7,715.516,32979.5,715.547,31805.7,715.547,32747.4,715.588,11061.5
714.688,1582.54,714.688,2536.41,714.709,32889.8,714.738,31796.8,714.738,32518.4,714.781,11093.5
713.881,1517.23,713.881,2508.07,713.9,32871.3,713.932,31747.6,713.932,32626.9,713.973,11165.8
713.074,1616.01,713.074,2405.45,713.094,33509.2,713.125,31924.4,713.125,32661.2,713.166,11024.4
712.266,1482.62,712.266,2405,712.285,33270.9,712.316,31884.4,712.316,33029.7,712.357,11152.4
711.457,1581.38,711.457,2491.21,711.479,33360.7,711.508,31878.6,711.508,32841,711.551,11255.5
710.65,1506.83,710.65,2537.16,710.67,32593.4,710.701,31792.2,710.701,33029.9,710.742,11333.9
709.842,1559.14,709.842,2453.17,709.861,32804,709.893,32108.1,709.893,32661.9,709.934,11050.3
709.033,1444.41,709.033,2468.18,709.055,33224.7,709.084,31895,709.084,32550.7,709.127,11212.2
708.225,1651.34,708.225,2514.11,708.246,33215.5,708.275,32250.9,708.275,32751.9,708.318,11435.9
707.416,1524.27,707.416,2436.36,707.438,33571.1,707.467,31812.1,707.467,33138.5,707.51,11115.3
706.607,1582.72,706.607,2510.1,706.629,33194,706.658,32047.4,706.658,33268.4,706.701,11073.1
705.799,1594.79,705.799,2574.54,705.818,33039.5,705.85,31920.9,705.85,33036.7,705.891,11234.8
704.99,1523.43,704.99,2543.16,705.01,33490.8,705.041,32134.4,705.041,33274.7,705.082,11424.4
704.182,1516.97,704.182,2545.78,704.201,33021.2,704.23,32181,704.23,33157.3,704.273,11162.7
703.371,1584.64,703.371,2523.69,703.393,33225.1,703.422,32221.4,703.422,32885.6,703.465,11169.9
702.562,1581.26,702.562,2464.55,702.582,33083.1,702.613,31857.2,702.613,32848.6,702.654,11291.4
701.752,1562.44,701.752,2572.17,701.773,33209.8,701.803,32166.3,701.803,33364.4,701.846,11369.6
700.943,1568.33,700.943,2546.99,700.963,33432.1,700.994,32358,700.994,33086.6,701.035,11065
700.133,1531,700.133,2407.62,700.152,33302.5,700.184,31932.2,700.184,33018.7,700.225,11164.8
699.322,1493.68,699.322,2456.56,699.344,33577.2,699.373,32518.8,699.373,33160.8,699.416,11249.1
698.512,1650.77,698.512,2508.56,698.533,33373.5,698.562,32571.5,698.562,33509.5,698.605,11382.8
697.701,1579.51,697.701,2634.58,697.723,33299.5,697.752,32624.1,697.752,33293.5,697.795,11319
696.891,1551.46,696.891,2593.99,696.912,33392,696.941,32550.2,696.941,33802.5,696.984,11409.5
696.08,1498.75,696.08,2593.51,696.102,33740.5,696.131,32436.2,696.131,33457,696.174,11351.9
695.27,1649.55,695.27,2515.95,695.291,33873,695.32,32757.1,695.32,33611.2,695.363,11448.4
694.459,1633.84,694.459,2373.69,694.479,33820.5,694.51,32374.9,694.51,33225.8,694.551,11387.7
693.648,1562.64,693.648,2400.99,693.668,33435.2,693.699,31919,693.699,33608,693.74,11246.9
692.836,1623.99,692.836,2585.44,692.857,33490.6,692.887,32436.9,692.887,33725.1,692.93,11170.9
692.025,1549.74,692.025,2578.8,692.045,33807.9,692.076,32471,692.076,33792.8,692.117,11544.7
691.213,1614.15,691.213,2615.29,691.234,33693.9,691.264,32680.6,691.264,33915.9,691.307,11259.2
690.402,1697,690.402,2565.52,690.422,33736.9,690.453,32723.9,690.453,33897.3,690.494,11358.7
689.59,1496.54,689.59,2549.65,689.609,33767.7,689.641,32850.2,689.641,33694,689.684,11233.5
688.777,1582.46,688.777,2650.78,688.799,33989.2,688.828,32431.6,688.828,34004.9,688.871,11471.5
687.965,1606.8,687.965,2524.09,687.986,33632.1,688.016,32721.1,688.016,33675.4,688.059,11454
687.154,1674.21,687.154,2520.54,687.174,34250.6,687.205,32921.3,687.205,34173.9,687.246,11411.9
686.342,1596.97,686.342,2535.46,686.361,33933.5,686.393,32807.5,686.393,33798.3,686.434,11311.3
685.527,1550.53,685.527,2479.62,685.549,33933.4,685.58,32946,685.58,34392,685.621,11306.2
684.715,1651.75,684.715,2679.09,684.736,34000.9,684.766,33262.9,684.766,33942.7,684.809,11254.9
683.902,1620.69,683.902,2589.41,683.924,33840.8,683.953,32435.6,683.953,33927.2,683.996,11523.4
683.09,1672.66,683.09,2616.6,683.109,34099,683.141,33161.4,683.141,34059.3,683.182,11515.1
682.275,1730.76,682.275,2502.38,682.297,33905.2,682.328,32546.6,682.328,34009.9,682.369,11439.2
681.463,1687.41,681.463,2551.09,681.482,33981.9,681.514,33023.2,681.514,34292.6,681.557,11292.6
680.648,1533.44,680.648,2593.64,680.67,34513.4,680.701,33093.9,680.701,34565.9,680.742,11447.3
679.836,1646.84,679.836,2605.45,679.855,34507,679.887,33576.3,679.887,34602.5,679.928,11638.7
679.021,1769.41,679.021,2577.32,679.043,34562.1,679.072,33410.3,679.072,34550,679.115,11504.5
678.207,1747.59,678.207,2500.06,678.229,34445.1,678.26,33226,678.26,34549.8,678.301,11401
677.395,1759.55,677.395,2499.6,677.414,34122.4,677.445,32903.6,677.445,33981.4,677.486,11500.2
676.58,1725.45,676.58,2578.96,676.6,34555.2,676.631,33296.6,676.631,34555.4,676.672,11519.6
675.766,1672.95,675.766,2587.69,675.785,34831.2,675.816,33103.2,675.816,34484.5,675.857,11815.2
674.951,1715.6,674.951,2571.87,674.971,34527,675.002,33431.6,675.002,34877.1,675.043,11690.3
674.135,1614.02,674.135,2482.41,674.156,34459.3,674.188,33069.4,674.188,34806.2,674.229,11792.4
673.32,1751.78,673.32,2543.3,673.342,34805.7,673.371,33324.1,673.371,34996.1,673.414,11547.9
672.506,1671.71,672.506,2616.45,672.525,34716.4,672.557,33351.7,672.557,34916,672.6,11824.9
671.691,1769.53,671.691,2631.3,671.711,34614.9,671.742,33633.8,671.742,34814.5,671.783,11433.2
670.875,1753.87,670.875,2633.88,670.896,35001,670.926,33581.5,670.926,34875.5,670.969,11774.5
670.061,1729.02,670.061,2437.19,670.08,34620.5,670.111,33345.4,670.111,34758.7,670.152,11738.6
669.244,1728.7,669.244,2626.77,669.264,34868.5,669.295,33553.8,669.295,34874.8,669.338,11659.8
668.428,1722.25,668.428,2583.38,668.449,34779.3,668.479,33823.4,668.479,34853,668.521,11627
667.613,1758.7,667.613,2598.22,667.633,34687,667.664,33026.6,667.664,34472.8,667.705,11796.4
666.797,1773.69,666.797,2655.95,666.816,34527.4,666.848,33924.2,666.848,34840.1,666.889,11543
665.98,1666.17,665.98,2658.52,666,34747.7,666.031,33360.4,666.031,34567.2,666.074,11672.6
665.164,1794.47,665.164,2615.15,665.184,34664.7,665.215,33773.8,665.215,34864,665.258,11425.4
664.348,1726.78,664.348,2486.08,664.367,35117.5,664.398,33351.1,664.398,34422.7,664.439,11506
663.531,1634.63,663.531,2552.96,663.551,34740.6,663.582,33672.5,663.582,34701,663.623,11727.3
662.713,1698.6,662.713,2543.3,662.734,34480.1,662.766,33461.2,662.766,34495.7,662.807,11596.6
661.896,1719.7,661.896,2536.71,661.918,34427.8,661.947,33653.9,661.947,34819.7,661.99,11649.5
661.08,1627.6,661.08,2487.29,661.1,35161.8,661.131,33139.8,661.131,34430.9,661.172,11840.1
660.262,1639.53,660.262,2505.18,660.283,34228.5,660.312,33568,660.312,34730.4,660.355,11541.2
659.445,1654.52,659.445,2599.52,659.465,34815.4,659.496,33307.9,659.496,34830.9,659.537,11615.5
658.627,1580.83,658.627,2436.98,658.648,34325.8,658.678,33812.4,658.678,34793.9,658.721,11610.3
657.809,1660.02,657.809,2558.82,657.83,34790.3,657.861,33093.8,657.861,34918.9,657.902,11559.2
656.992,1635.26,656.992,2604.19,657.012,34423.1,657.043,33451.4,657.043,34912.4,657.084,11786.3
656.174,1769.42,656.174,2563.98,656.193,34630.7,656.225,33105.9,656.225,34340.6,656.268,11799.4
655.355,1714.09,655.355,2450.45,655.375,34502,655.406,33713.9,655.406,34923.9,655.449,11659.7
654.537,1738.22,654.537,2566.08,654.557,34917.2,654.588,33365.5,654.588,34670,654.631,12115.8
653.719,1765.38,653.719,2477.03,653.738,34409.8,653.77,33560.9,653.77,34379.5,653.812,11817.3
652.9,1652.07,652.9,2641.47,652.92,34672.1,652.951,33759.3,652.951,34385.3,652.992,11900.6
652.08,1697.56,652.08,2396.73,652.102,34586.3,652.133,33203.4,652.133,34818.6,652.174,11849.5
651.262,1660.61,651.262,2518.39,651.281,34802.7,651.312,33652.1,651.312,34351.2,651.355,11960.3
650.443,1651.14,650.443,2588.12,650.463,34539.9,650.494,33249.1,650.494,34524.9,650.535,11619.3
649.623,1663.04,649.623,2654.77,649.645,34963.7,649.674,33304,649.674,34436.1,649.717,11931.4
648.805,1662.73,648.805,2532.24,648.824,34298.2,648.855,33306.9,648.855,34707.3,648.896,11776.7
647.984,1580.07,647.984,2553.12,648.004,34496.2,648.035,33212.3,648.035,34383.6,648.078,11798.9
647.164,1686.51,647.164,2689.88,647.186,34413.6,647.217,33794.7,647.217,34291.8,647.258,11671.6
646.344,1683.15,646.344,2448.5,646.365,34986.5,646.396,33428.6,646.396,34654.4,646.438,11946.9
645.525,1621.87,645.525,2615.72,645.545,34666,645.576,33596.2,645.576,34486.4,645.619,11795.3
644.705,1575.84,644.705,2496.36,644.725,34754.1,644.756,33574.7,644.756,34522.6,644.799,11976
643.885,1691.36,643.885,2626.93,643.904,34068,643.936,33242.4,643.936,34723.5,643.979,11775.7
643.064,1602.68,643.064,2510.66,643.084,34893.5,643.115,33330.6,643.115,34604.3,643.158,11575.5
642.242,1684.63,642.242,2479.73,642.264,34649.4,642.295,33336.6,642.295,34853.7,642.336,11664.7
641.422,1717.82,641.422,2482.32,641.443,34484.6,641.473,33102,641.473,34317.3,641.516,11592.5
640.602,1680.96,640.602,2615.85,640.621,34596.9,640.652,33409.5,640.652,35011.3,640.695,11736.5
639.779,1638.02,639.779,2520.97,639.801,34748.8,639.832,33400.2,639.832,34548.1,639.873,11853.1
638.959,1655.98,638.959,2538.77,638.979,34322.2,639.01,33789.7,639.01,34861.3,639.053,11765.6
638.137,1686.11,638.137,2529.17,638.158,34732.8,638.189,33326.9,638.189,35061.7,638.23,11501.7
637.316,1676.67,637.316,2534.78,637.336,35021.5,637.367,33430.3,637.367,35088.7,637.41,11743
636.494,1691.57,636.494,2482.59,636.514,34856.8,636.545,33186.7,636.545,34872.2,636.588,11719.5
635.672,1600,635.672,2579.47,635.693,34713.4,635.723,33512.1,635.723,35078.7,635.766,11939.4
634.85,1645.32,634.85,2594.19,634.871,34950.3,634.902,33408.6,634.902,35032.6,634.943,11657.4
634.027,1651.09,634.027,2481.2,634.049,34697.5,634.08,32958.4,634.08,34846.7,634.121,11694.7
633.205,1684.23,633.205,2498.98,633.227,34931.2,633.258,32848.9,633.258,35046.9,633.299,11738.1
632.383,1538.02,632.383,2495.48,632.404,34566,632.436,33730.3,632.436,35137.7,632.477,11644.8
631.561,1543.81,631.561,2455.5,631.582,34629.4,631.611,33210.5,631.611,34815.1,631.654,11727.7
630.738,1658.98,630.738,2485.43,630.758,34811.4,630.789,33359.2,630.789,35130.6,630.832,11649.5
629.914,1661.71,629.914,2609.52,629.936,34725.9,629.967,33213.3,629.967,34789.9,630.008,11553.2
629.092,1649.25,629.092,2639.41,629.111,34853.1,629.143,33413.6,629.143,35172.2,629.186,11709
628.268,1667.16,628.268,2578.18,628.289,34552,628.32,33055.1,628.32,35244.6,628.363,11864.7
627.445,1645.6,627.445,2577.7,627.465,34727.8,627.496,33109.7,627.496,35301.8,627.539,11674.3
626.621,1712.08,626.621,2537.76,626.643,34939.8,626.674,33054.9,626.674,35453.1,626.715,11720.7
625.797,1723.9,625.797,2488.72,625.818,34912.1,625.85,33410,625.85,35728.7,625.893,11594
624.975,1802.47,624.975,2749.22,624.994,34814.5,625.025,33707.2,625.025,35533.9,625.068,11652.6
624.15,1738.42,624.15,2627.36,624.17,34886.9,624.201,32836.2,624.201,35609.2,624.244,11726.2
623.326,1829.1,623.326,2669.33,623.346,35374.9,623.377,33467.1,623.377,35945.4,623.42,11705.8
622.502,1895.48,622.502,2611.21,622.521,35407.7,622.553,33242.5,622.553,36445.1,622.596,11758.3
621.678,1734.42,621.678,2662.27,621.697,35234.3,621.729,33372.8,621.729,36074.5,621.771,11740.9
620.852,1606.77,620.852,2637.52,620.873,35279.3,620.904,33069.4,620.904,36522.5,620.947,11950.9
620.027,1803.49,620.027,2734.02,620.049,35675.8,620.078,33366.4,620.078,36500.5,620.121,11760.8
619.203,1778.91,619.203,2654.72,619.223,34981.2,619.254,33320.7,619.254,36042.2,619.297,11422.2
618.377,1769.48,618.377,2526.97,618.398,35332.3,618.43,32626.7,618.43,36202.1,618.471,11535.2
617.553,1708.57,617.553,2665.85,617.572,35422.6,617.604,32578.2,617.604,35895.4,617.646,11390.7
616.727,1783.97,616.727,2689.58,616.748,35043.4,616.779,32829.6,616.779,35846.3,616.82,11488.5
615.9,1726.1,615.9,2686.05,615.922,35270.1,615.953,32769,615.953,35376.3,615.996,11671.1
615.076,1792.38,615.076,2637.11,615.096,35003.1,615.127,32753.8,615.127,35984.3,615.17,11417.6
614.25,1798.1,614.25,2660.83,614.27,34824,614.301,32696.2,614.301,36259.1,614.344,11606.2
613.424,1713.03,613.424,2496.9,613.443,34581.5,613.475,32305.7,613.475,35680.3,613.518,11464.8
612.598,1739.94,612.598,2502.49,612.617,34593.2,612.648,32233.1,612.648,35244,612.691,11620
611.771,1694.23,611.771,2568.58,611.791,34635.1,611.822,32454,611.822,35418.9,611.865,11424.2
610.945,1678.79,610.945,2537.85,610.965,34416.9,610.996,31921.6,610.996,35091.7,611.039,11331.3
610.117,1654.28,610.117,2395.23,610.139,34189.7,610.17,32269.5,610.17,35142.6,610.213,11459.2
609.291,1629.79,609.291,2503.64,609.312,33932.3,609.344,32314.8,609.344,34618.9,609.385,11411.7
608.465,1623.43,608.465,2506.2,608.484,33732.5,608.516,31770.7,608.516,34911.8,608.559,11467
607.637,1756.13,607.637,2656.86,607.658,33774.6,607.689,31142.1,607.689,34757.1,607.73,11368.2
606.811,1544.26,606.811,2453.88,606.83,33698.7,606.861,31677.2,606.861,35068,606.904,11097.1
605.982,1634.61,605.982,2489.68,606.004,33828.4,606.033,31502.1,606.033,34943.6,606.076,11197.7
605.154,1679.62,605.154,2434.84,605.176,33523,605.207,31656.3,605.207,34695.4,605.25,11144.3
604.326,1582.65,604.326,2528.02,604.348,33024.4,604.379,31580.9,604.379,34290.2,604.422,11260
603.5,1606.52,603.5,2500.37,603.52,33513.5,603.551,31427,603.551,34425.7,603.594,11085.8
602.672,1642.45,602.672,2518.01,602.691,33320,602.723,31406.1,602.723,34310.6,602.766,11110.9
601.844,1636.1,601.844,2451.13,601.863,33008.9,601.895,31110.4,601.895,34156.2,601.938,11105.8
601.014,1587.51,601.014,2393.33,601.035,33334.7,601.066,30917.5,601.066,34062.3,601.109,11112.8
600.186,1478.58,600.186,2447.2,600.207,33117.3,600.238,31264.7,600.238,33733.1,600.281,10830
599.357,1574.84,599.357,2479.93,599.379,32945.2,599.41,30815.4,599.41,34164.2,599.451,10963.8
598.529,1562.48,598.529,2476.45,598.549,32993.3,598.58,31147.5,598.58,33913.5,598.623,11043.2
597.699,1538.07,597.699,2331.22,597.721,33029.3,597.752,30900.4,597.752,33976.5,597.795,10736.5
596.871,1480.49,596.871,2424.26,596.891,32797,596.922,31006.1,596.922,33662.6,596.965,11017.9
596.041,1525.43,596.041,2381.6,596.062,32676.3,596.094,30563.2,596.094,33855.3,596.137,10732.5
595.211,1630.64,595.211,2459.52,595.232,32438.1,595.264,30500.2,595.264,33562.6,595.307,10811.9
594.383,1564.04,594.383,2380.71,594.402,32676.1,594.434,30657.2,594.434,33673.8,594.477,10948.5
593.553,1566.76,593.553,2395.33,593.574,32576.6,593.604,30690.7,593.604,33727.8,593.646,10976.5
592.723,1494.16,592.723,2406.93,592.744,32591.6,592.775,30657.8,592.775,33742.6,592.816,10971.5
591.893,1611.35,591.893,2415.52,591.914,32471,591.945,30622,591.945,33567.6,591.986,10903.2
591.062,1614.06,591.062,2472.28,591.084,32507.1,591.115,30233.8,591.115,33732.9,591.156,10834.9
590.232,1574.62,590.232,2387.51,590.252,32519.1,590.283,30122.7,590.283,33416.5,590.326,10896.1
589.402,1565.29,589.402,2456.3,589.422,32633.4,589.453,30192.4,589.453,33747.4,589.496,11050.5
588.57,1477.72,588.57,2416.72,588.592,32199.9,588.623,30812.7,588.623,33542.4,588.666,10759.6
587.74,1546.65,587.74,2395.2,587.762,32317.3,587.791,30361.6,587.791,33936.4,587.834,10754.5
586.908,1450.09,586.908,2445.9,586.93,32389.4,586.961,30542.4,586.961,33872.8,587.004,10731.5
586.078,1525.01,586.078,2418.37,586.1,32491.7,586.129,30299.1,586.129,33589.8,586.172,10849.8
585.246,1476.61,585.246,2312.65,585.268,32142.7,585.299,30618.2,585.299,34154.9,585.342,10787.6
584.416,1527.45,584.416,2339.28,584.436,32590.7,584.467,30182.5,584.467,33727.5,584.51,10755.5
583.584,1497.1,583.584,2456.09,583.604,32365.2,583.635,30600.7,583.635,34063.9,583.678,10588.1
582.752,1535.89,582.752,2314.36,582.773,32470.3,582.805,30294.4,582.805,33669.8,582.846,10745.4
581.92,1520.58,581.92,2334.96,581.941,32434.2,581.973,30360.8,581.973,33930.9,582.016,10878.7
581.088,1472.22,581.088,2316.5,581.109,32235.8,581.141,30295.1,581.141,33825.4,581.184,10410.9
580.256,1492.97,580.256,2394.17,580.275,32509.1,580.307,30457.6,580.307,33768,580.35,10721.4
579.424,1546.76,579.424,2363.68,579.443,32442.9,579.475,30070.4,579.475,33869.8,579.518,10842.5
578.59,1558.48,578.59,2402.28,578.611,32238.7,578.643,30656.4,578.643,33830.4,578.686,10756.4
577.758,1525.16,577.758,2467.88,577.779,32565.9,577.811,30128.2,577.811,33764,577.854,10910.5
576.926,1575.9,576.926,2473.42,576.945,32448.7,576.977,30263.6,576.977,33943.8,577.02,10905.4
576.092,1434.55,576.092,2331.9,576.113,32391.6,576.145,30309,576.145,33961.4,576.188,10717.3
575.26,1485.29,575.26,2475.49,575.279,32226.5,575.311,30468.3,575.311,33691,575.354,10589.3
574.426,1551.01,574.426,2463.02,574.447,32106.4,574.479,30465.6,574.479,33993.7,574.521,10923.3
573.592,1610.71,573.592,2444.56,573.613,32367.4,573.645,30489.9,573.645,34095.3,573.688,10744.3
572.758,1553.43,572.758,2462.1,572.779,32958.1,572.811,30454.2,572.811,34088.9,572.854,10709.3
571.924,1493.17,571.924,2446.64,571.945,33044.8,571.977,30793.3,571.977,34232.4,572.02,10740.2
571.09,1612.8,571.09,2362.25,571.111,32268.2,571.143,30547.7,571.143,34016.1,571.186,10723.2
570.256,1651.46,570.256,2331.83,570.277,32960.5,570.309,30835.7,570.309,34483.3,570.352,10922
569.422,1639.17,569.422,2418.3,569.443,33110.1,569.475,30461.3,569.475,34446.9,569.518,10821.1
568.588,1575.94,568.588,2387.88,568.609,32729.4,568.641,30701.2,568.641,34850.9,568.684,10959.9
567.754,1617.58,567.754,2543.2,567.773,33520.1,567.805,30953.1,567.805,34790.4,567.848,10799.1
566.918,1650.22,566.918,2563.69,566.939,33385,566.971,31159.9,566.971,34786.9,567.014,10755.1
566.084,1667.88,566.084,2494.33,566.105,32962.5,566.137,30803.7,566.137,35196.5,566.18,10935.7
565.248,1646.61,565.248,2475.9,565.27,33605.9,565.301,30878.8,565.301,35438.4,565.344,10825.9
564.414,1559.5,564.414,2379.65,564.434,33420,564.465,31363.9,564.465,35222.2,564.508,10928.6
563.578,1702.85,563.578,2448.04,563.6,33904.6,563.631,31130.5,563.631,35296.4,563.674,11085.2
562.742,1690.56,562.742,2426.63,562.764,33811.4,562.795,31244.3,562.795,35475.3,562.838,10942.5
561.906,1741.1,561.906,2578.75,561.928,34295.7,561.959,30984.2,561.959,35447.7,562.002,11122.9
561.07,1743.77,561.07,2566.3,561.092,33984.1,561.123,31561.6,561.123,36096.1,561.166,11007.2
560.234,1686.62,560.234,2544.88,560.256,34220,560.287,31516.8,560.287,35760.3,560.33,10873.5
559.398,1737.13,559.398,2511.51,559.42,34476.7,559.451,31448.1,559.451,35768.5,559.494,11164.5
558.562,1733.82,558.562,2606.7,558.584,34416.4,558.615,31726.2,558.615,36365.7,558.658,11255.1
557.727,1772.34,557.727,2636.1,557.746,34690.8,557.779,31528.9,557.779,36875.9,557.822,11109.5
556.889,1715.23,556.889,2596.76,556.91,34887.5,556.941,31735.2,556.941,37009.4,556.984,11262.8
556.053,1756.74,556.053,2611.21,556.074,35024.4,556.105,32392.4,556.105,36990.5,556.148,11150.1
555.215,1849.01,555.215,2610.71,555.236,35164.1,555.268,32111.5,555.268,37625.8,555.311,11118.1
554.379,1956.17,554.379,2589.32,554.4,35312.8,554.432,32604.2,554.432,38171.2,554.475,11083.2
553.541,1890.11,553.541,2696.32,553.562,35780.9,553.594,32299.5,553.594,37787.8,553.637,11272.2
552.703,1889.76,552.703,2737.61,552.725,35571.2,552.756,32687.5,552.756,38201.6,552.799,11347.7
551.867,1996.86,551.867,2757.99,551.887,35866,551.918,32851.5,551.918,38391.4,551.961,11465
551.029,1936.8,551.029,2855.95,551.049,36542.6,551.082,33636.2,551.082,38927.3,551.125,11385.2
550.191,2014.01,550.191,2724.13,550.211,37090.7,550.244,33340.4,550.244,39433.2,550.287,11508.4
549.354,2031.53,549.354,2807.15,549.373,37152.4,549.404,33748.8,549.404,39437.7,549.449,11610.7
548.514,2105.71,548.514,2827.5,548.535,37479.4,548.566,33724.5,548.566,39764.3,548.609,11599.5
547.676,2203.72,547.676,2791.18,547.697,37707.9,547.729,33888.2,547.729,40174.3,547.771,11746.4
546.838,2292.75,546.838,2972.52,546.859,38267.3,546.891,34352.9,546.891,41204.3,546.934,11920.1
546,2250.58,546,2960.04,546.02,38540.3,546.051,34713,546.051,41247.3,546.094,11897
545.16,2291.89,545.16,2962.46,545.182,39173.8,545.213,34763.1,545.213,42154.5,545.256,11987.2
544.32,2392.77,544.32,2979.78,544.342,39321.4,544.373,35349.6,544.373,42185.3,544.416,12098.1
543.482,2514.46,543.482,3077.54,543.504,40064.8,543.535,35715.3,543.535,42740.4,543.578,12104.8
542.643,2522.93,542.643,3190.15,542.664,40212.1,542.695,36057.1,542.695,43620,542.738,12284.2
541.803,2584.99,541.803,3320.58,541.824,41363,541.855,36223,541.855,44823.9,541.898,12332.5
540.963,2670.85,540.963,3242.54,540.984,41688.7,541.016,36695.6,541.016,45565.8,541.059,12255.8
540.123,2759.66,540.123,3331.24,540.145,42541.2,540.176,37165,540.176,46295.5,540.219,12646.4
539.283,2988.32,539.283,3381.21,539.305,43176.1,539.336,37902.1,539.336,47084.4,539.379,12623.2
538.443,3065.13,538.443,3478.77,538.465,44120.2,538.496,38255,538.496,48917.6,538.539,12855.9
537.604,3112.16,537.604,3498.95,537.625,45203.8,537.656,38958.9,537.656,49539.2,537.699,12984.4
536.764,3346.57,536.764,3780.89,536.785,46531,536.816,39864.8,536.816,51177.9,536.859,13344.9
535.922,3622.54,535.922,4065.69,535.943,48149.1,535.975,40779.3,535.975,53256.1,536.018,13327.5
535.082,3800.27,535.082,4145.21,535.104,49412.7,535.135,41634,535.135,54738.8,535.178,13848.4
534.24,4281.19,534.24,4227.68,534.262,51767,534.293,43178.1,534.293,57478.6,534.336,13967.6
533.4,4556.83,533.4,4527.1,533.422,53603.1,533.453,44014.1,533.453,59637.7,533.496,14437.6
532.559,4876.93,532.559,4835.33,532.58,56351,532.611,45717.7,532.611,63528.6,532.654,14782.6
531.717,5354.4,531.717,5265.26,531.738,59980.3,531.77,47955.4,531.77,67896.5,531.812,15403.9
530.875,6105.01,530.875,5576.2,530.896,63845.9,530.928,50391.4,530.928,72369.6,530.973,15662.4
530.035,6840.48,530.035,6210.78,530.055,68274.4,530.086,53447.2,530.086,78109.4,530.131,16506
529.193,7641,529.193,6922.34,529.213,74768.1,529.244,56786.9,529.244,86104,529.289,17607.6
528.35,8943,528.35,7886,528.371,83483.2,528.402,61770.3,528.402,96895.5,528.445,18759.3
527.508,10743.2,527.508,9143.18,527.529,95793,527.561,68865.5,527.561,111299,527.604,20575.5
526.666,13347.1,526.666,11103.3,526.688,111360,526.719,77810,526.719,131054,526.762,22877.8
525.824,16748.2,525.824,13798.6,525.844,135945,525.877,91537.7,525.877,160009,525.92,26461.2
524.98,22770.8,524.98,18041.6,525.002,172228,525.033,112446,525.033,202890,525.076,31078.7
524.139,31879.1,524.139,25121.8,524.158,231884,524.191,146677,524.191,275064,524.234,39031.6
523.295,48683,523.295,38181.2,523.316,339984,523.348,203934,523.348,401456,523.391,53171.2
522.451,82106.4,522.451,62862.3,522.473,540478,522.504,313114,522.504,632366,522.549,78321.3
521.609,144918,521.609,110077,521.629,901142,521.662,513879,521.662,1.05299e+06,521.705,128772
520.766,219701,520.766,160093,520.787,1.2999e+06,520.818,776808,520.818,1.55506e+06,520.861,200023
519.922,218409,519.922,158077,519.943,1.34105e+06,519.975,857400,519.975,1.64376e+06,520.018,233177
519.078,142370,519.078,105093,519.1,950635,519.131,648173,519.131,1.2058e+06,519.174,181209
518.234,80947.6,518.234,60871.4,518.256,575440,518.287,393636,518.287,723177,518.33,112387
517.391,48298.8,517.391,37034.9,517.41,355443,517.443,248095,517.443,450634,517.486,70040
516.545,32233.6,516.545,25162,516.566,244017,516.598,169911,516.598,302984,516.643,49004.2
515.701,22628.8,515.701,17675.5,515.723,178307,515.754,126910,515.754,219519,515.797,36983.1
514.857,17003.2,514.857,13717.4,514.877,139782,514.91,100063,514.91,167366,514.953,30108.4
514.012,13377.4,514.012,11060,514.033,113584,514.064,84781.7,514.064,136069,514.107,25296.2
513.168,11282.8,513.168,9217.42,513.188,98261.3,513.221,73151.3,513.221,114963,513.264,22823.5
512.322,9156.51,512.322,8011.57,512.344,85065.6,512.375,65868.4,512.375,99947.5,512.418,20665.4
511.477,7974.56,511.477,7072.4,511.498,76947.7,511.529,60499.1,511.529,89348,511.572,19155.9
510.631,6943.89,510.631,6251.87,510.652,70030.7,510.684,56119.5,510.684,80178,510.729,18137.9
509.787,6067.36,509.787,5576.53,509.807,65319,509.84,52702.7,509.84,73681.4,509.883,17031.5
508.941,5560.7,508.941,5235.51,508.961,60488,508.994,49928.6,508.994,67979.6,509.037,16256.7
508.094,5006.93,508.094,4735.01,508.115,57662.7,508.148,48113.2,508.148,64467.2,508.191,15783.7
507.248,4574.54,507.248,4450.42,507.27,55095.6,507.301,46709.2,507.301,60917.6,507.346,15455.6
506.402,4139.35,506.402,4292.99,506.424,52762.9,506.455,45261.5,506.455,58849.7,506.498,14988.8
505.557,3967.23,505.557,4171.06,505.578,50871.2,505.609,44325.4,505.609,55417.8,505.652,14587.2
504.709,3653.42,504.709,3898.55,504.73,48959.5,504.762,42766.4,504.762,53815.4,504.807,14401.3
503.863,3478.5,503.863,3750.17,503.885,47772,503.916,42356.7,503.916,51927.1,503.959,14448.8
503.016,3215.09,503.016,3666.8,503.037,47190.2,503.068,41758.2,503.068,50588.7,503.113,14139
502.17,3211.53,502.17,3530.32,502.191,46201.3,502.223,40767.4,502.223,49035.4,502.266,13965.1
501.322,2898.09,501.322,3447.02,501.344,45080,501.375,40809.8,501.375,48503.7,501.418,13690.9
500.475,2868.04,500.475,3408.01,500.496,44679,500.527,39911,500.527,47352.6,500.572,13673.6
499.627,2731.79,499.627,3351.31,499.648,43697,499.68,40107,499.68,46393.7,499.725,13426.1
498.779,2684.08,498.779,3217.94,498.801,43703.5,498.832,39105.4,498.832,45963.1,498.877,13748
497.932,2659.98,497.932,3187.84,497.953,42494.9,497.984,39513.8,497.984,45382.3,498.029,13491.8
497.084,2541.54,497.084,3125.32,497.105,42321.8,497.137,38934.3,497.137,44742.7,497.182,13288.8
496.236,2426.09,496.236,3124.73,496.258,42343.2,496.289,39021.2,496.289,44925.9,496.332,13395.3
495.389,2346.05,495.389,3150.67,495.408,42382.4,495.441,38156.2,495.441,43626.4,495.484,13336.8
494.539,2307.3,494.539,2996.84,494.561,41284,494.592,38623.4,494.592,43836.2,494.637,13272.4
493.691,2368.73,493.691,2955.02,493.713,41538.4,493.744,37894.2,493.744,43636.4,493.787,13155
492.842,2265.19,492.842,2963.3,492.863,41445.1,492.895,38753.1,492.895,43504.4,492.939,13261.5
491.994,2303.04,491.994,2868.5,492.014,41257.6,492.047,38295.1,492.047,43399,492.09,13426.8
491.145,2237.83,491.145,2865.01,491.166,41176.2,491.197,38473.4,491.197,43252.4,491.24,13347.7
490.295,2275.67,490.295,2914.51,490.316,41766,490.348,38469,490.348,43085.2,490.393,13395.2
489.445,2078.04,489.445,2840.37,489.467,40910.4,489.498,38720.8,489.498,42806.2,489.543,12930.6
488.596,2018.79,488.596,2825.12,488.617,41026.2,488.648,37621.6,488.648,42727.5,488.693,13172.4
487.746,2106.67,487.746,2836.36,487.768,40447.7,487.799,37929.3,487.799,42631.1,487.844,13128.7
486.896,2070.97,486.896,2641.66,486.918,40863.6,486.949,37772.1,486.949,42205.3,486.994,13432.1
486.047,1988.23,486.047,2814.69,486.068,40926.4,486.1,37997.3,486.1,41941.4,486.143,12914.9
485.197,2049.6,485.197,2790.63,485.219,40518.7,485.25,37451.9,485.25,42074.6,485.293,13359.4
484.346,2058.03,484.346,2678.38,484.367,40325.8,484.398,37562.4,484.398,42028.4,484.443,13165.8
483.496,1937.12,483.496,2677.87,483.518,40033,483.549,37343.7,483.549,41849.9,483.592,13157.4
482.645,1989.66,482.645,2756.72,482.666,40319.3,482.699,37609.9,482.699,41686.2,482.742,12952.1
481.795,1918.76,481.795,2732.69,481.816,40258.8,481.848,37632.1,481.848,41839.9,481.891,13029
480.943,1889.01,480.943,2602.9,480.965,40547.9,480.996,37627.9,480.996,41849.6,481.041,13076.5
480.092,1788.79,480.092,2620.03,480.113,39967.4,480.145,37703,480.145,41618.4,480.189,12839
479.24,1932.35,479.24,2651.84,479.262,40089.1,479.295,37742.9,479.295,41140.7,479.338,13089.1
478.389,1867.39,478.389,2677.76,478.41,40116.7,478.443,37747.4,478.443,41602.6,478.486,13195.3
477.537,1755.48,477.537,2542.22,477.559,40217.7,477.592,37373.3,477.592,41468.5,477.635,13060.7
476.686,1775.69,476.686,2656.2,476.707,39846.1,476.74,37433.7,476.74,41839.3,476.783,13325.3
475.834,1737.21,475.834,2611.68,475.855,40604.4,475.887,37649.7,475.887,41543.7,475.932,13199.5
474.982,1780.89,474.982,2611.18,475.004,40558.6,475.035,37748.1,475.035,41353.9,475.078,13182.3
474.129,1777.61,474.129,2590.15,474.15,39943.7,474.184,37362.6,474.184,41513.3,474.227,13217.9
473.277,1759.68,473.277,2572.06,473.299,39795.3,473.33,37528.5,473.33,41273.7,473.375,13139.2
472.424,1762.28,472.424,2512.93,472.445,40066.3,472.479,37257.5,472.479,41309.9,472.521,13198.3
471.572,1723.83,471.572,2574.02,471.594,40176,471.625,37584.6,471.625,41454.5,471.668,13207.5
470.719,1697.12,470.719,2494.39,470.74,40402.8,470.771,37803.2,470.771,41338.1,470.816,13310.5
469.865,1679.22,469.865,2684.4,469.887,40506.5,469.92,37895.6,469.92,41687.8,469.963,13214.2
469.014,1678.9,469.014,2689.75,469.033,40144.3,469.066,37853.3,469.066,41120.3,469.109,13390.4
468.16,1684.44,468.16,2536.91,468.182,40447.2,468.213,38285.5,468.213,41346.8,468.256,13405.4
467.307,1637.26,467.307,2691.66,467.326,40413.1,467.359,37797.9,467.359,41409.2,467.402,13370.7
466.451,1505.17,466.451,2591.58,466.473,40077.5,466.506,38162.6,466.506,40994.3,466.549,13385.7
465.598,1572.22,465.598,2547.18,465.619,39938.1,465.652,38489.1,465.652,40875.3,465.695,13512
464.744,1577.78,464.744,2514.49,464.766,40439.9,464.797,38683.8,464.797,41090,464.842,13690.9
463.891,1659.42,463.891,2519.87,463.912,40121.9,463.943,38647.1,463.943,41231.4,463.986,13761.5
463.035,1515.73,463.035,2449.16,463.057,40143.6,463.09,38672,463.09,40901.7,463.133,13700.3
462.182,1635.39,462.182,2574.49,462.203,40299.8,462.234,38904.5,462.234,41104.6,462.277,13729.9
461.326,1535.63,461.326,2465.78,461.348,40204.4,461.379,38525.7,461.379,40956.4,461.424,13616.2
460.471,1549.96,460.471,2494.55,460.492,39956.9,460.525,39088.6,460.525,40536.2,460.568,13865.1
459.617,1602.29,459.617,2435.6,459.639,40162.8,459.67,39423.3,459.67,41402.8,459.713,14029.1
458.762,1485.06,458.762,2432.22,458.783,40076.2,458.814,39936.1,458.814,40988.5,458.859,13810.1
457.906,1525.69,457.906,2472.67,457.928,40144.6,457.959,39645,457.959,40872.6,458.004,13901
457.051,1493.26,457.051,2483.89,457.072,40198.3,457.104,39579,457.104,41002.2,457.148,13942.2
456.195,1510.5,456.195,2480.5,456.217,40272.4,456.248,39577.3,456.248,41508.6,456.291,14120.7
455.34,1609.53,455.34,2421.6,455.359,40434.2,455.393,39593.2,455.393,41591.2,455.436,13840.5
454.482,1594.62,454.482,2441.59,454.504,40411.9,454.537,39822.2,454.537,42249.2,454.58,13928.4
453.627,1667.32,453.627,2479.08,453.648,40684.5,453.68,40083.3,453.68,42124.4,453.725,14317
452.77,1617.37,452.77,2499.05,452.791,40618.4,452.824,39783.7,452.824,41955.8,452.867,14092.4
451.914,1637.5,451.914,2559.87,451.936,40499.8,451.967,39306.2,451.967,41909.9,452.012,14025.5
451.057,1596.33,451.057,2626.5,451.078,40646.7,451.111,39678.1,451.111,42403.8,451.154,13865.3
450.201,1648.54,450.201,2547.22,450.223,40834.5,450.254,39107.4,450.254,41891,450.297,14142.7
449.344,1621.98,449.344,2634.25,449.365,40572.9,449.396,38589.4,449.396,42644.4,449.441,13912.5
448.486,1630.42,448.486,2520,448.508,40349.3,448.539,38783.3,448.539,42505.1,448.584,13731.9
447.629,1668.02,447.629,2551.6,447.65,40513.7,447.682,38140.2,447.682,42313.2,447.727,13732.2
446.771,1679.36,446.771,2577.35,446.793,40275.7,446.824,38060.1,446.824,42494.7,446.869,13513.9
445.914,1725.68,445.914,2477.75,445.936,40180.6,445.967,37743.8,445.967,42460.4,446.012,13298.5
445.057,1620.43,445.057,2608.43,445.078,40353.6,445.109,36935.2,445.109,42772.9,445.154,13045.3
444.197,1722.11,444.197,2610.85,444.219,39812.7,444.252,36759.1,444.252,42732.7,444.295,13013.7
443.34,1771.31,443.34,2578.3,443.361,39773,443.395,36140.3,443.395,42718.7,443.438,12874.3
442.482,1706.89,442.482,2644.81,442.504,39675.2,442.535,35629.5,442.535,42969.8,442.58,12749.5
441.623,1744.42,441.623,2626.83,441.645,40011.2,441.678,35713,441.678,42833.5,441.721,12551.9
440.766,1808.15,440.766,2713.68,440.785,39782.3,440.818,35112.2,440.818,42892.3,440.861,12229.2
439.906,1767.05,439.906,2692.78,439.928,39661.2,439.959,35155,439.959,43140.3,440.004,12087.2
439.047,1920.97,439.047,2724.29,439.068,39735.2,439.1,34275.1,439.1,43341.6,439.145,12268.2
438.188,1702.35,438.188,2723.77,438.209,39585,438.242,34140.6,438.242,43321.7,438.285,11718.8
437.328,1780.59,437.328,2644.69,437.35,39932.4,437.383,34049.7,437.383,43461.9,437.426,11856.2
436.469,1870.42,436.469,2667.46,436.49,39555.4,436.523,33900.7,436.523,44154.6,436.566,11627.1
435.609,1858.43,435.609,2713.49,435.631,39850.3,435.664,33777.9,435.664,44163.7,435.707,11968.1
434.75,1965.67,434.75,2675.17,434.771,39304.8,434.803,33277.1,434.803,44565.3,434.848,11427.8
433.891,1936.22,433.891,2645.58,433.912,40239.2,433.943,33517.9,433.943,44330,433.988,11667
433.029,1813.77,433.029,2624.73,433.051,40190.8,433.084,33043.5,433.084,44077.4,433.127,11487.4
432.17,1862.83,432.17,2603.89,432.191,39875.1,432.223,32601.3,432.223,43845.2,432.268,11246.9
431.309,1845.04,431.309,2690.56,431.33,39472.4,431.363,32801.4,431.363,44173.9,431.406,11160.5
430.449,1795.3,430.449,2666.81,430.471,39871.5,430.502,32556.9,430.502,44897.5,430.547,11170
429.588,1896.62,429.588,2634.35,429.609,39791.3,429.641,32771.4,429.641,44293.6,429.686,11106.9
428.727,1928.2,428.727,2561.25,428.748,40201.9,428.781,32306.4,428.781,44383.8,428.824,11069.9
427.865,1861.05,427.865,2700.12,427.887,39947.4,427.92,32520.8,427.92,44674.4,427.963,10983.6
427.004,1944.88,427.004,2606.72,427.025,39873.1,427.059,32500.1,427.059,44671.7,427.102,11004.7
426.143,1796.49,426.143,2641.05,426.164,40756.4,426.197,32345.9,426.197,44306.2,426.24,10988.1
425.281,1801.95,425.281,2675.36,425.303,40310.5,425.336,32441.3,425.336,45174.1,425.379,11003.4
424.42,1784.2,424.42,2686.46,424.441,40897.6,424.473,32641.1,424.473,45145.2,424.518,10804.1
423.559,1891.18,423.559,2752.66,423.58,40933.3,423.611,32501.4,423.611,44919,423.656,10845.5
422.695,1748.72,422.695,2746.33,422.717,41491,422.75,32300.9,422.75,44933.6,422.793,10863.7
421.834,1815.08,421.834,2603.73,421.855,41039.4,421.887,32706.5,421.887,45655.7,421.932,10966
420.971,1782.84,420.971,2606.14,420.992,41982.4,421.025,32384.3,421.025,45835.4,421.068,10691.4
420.109,1762.21,420.109,2652.01,420.131,41980.2,420.162,32812.9,420.162,45829.6,420.207,10964.8
419.246,1767.67,419.246,2723.95,419.268,41954.8,419.301,32864.5,419.301,46264.2,419.344,10841
418.383,1729.67,418.383,2642.31,418.404,42201.8,418.438,32942.3,418.438,46594.4,418.48,10746.2
417.52,1845.21,417.52,2685.25,417.541,42758.6,417.574,32875.2,417.574,46492.8,417.617,11045.4
416.656,1920.16,416.656,2571.79,416.678,42232,416.711,33060,416.711,46866.2,416.754,10910
415.793,1882.15,415.793,2551.03,415.814,43156.3,415.848,33108.8,415.848,46799.3,415.891,11035.4
414.93,1754.4,414.93,2718.46,414.951,43651.8,414.984,33910.2,414.984,47832.6,415.027,11175.1
414.066,1826.43,414.066,2625.31,414.088,44155.8,414.121,34363.9,414.121,48075.3,414.164,11416.1
413.203,1828.98,413.203,2616.13,413.225,44526.5,413.256,35005.6,413.256,48445.2,413.301,11419.7
412.338,1698.42,412.338,2566.44,412.359,45339.7,412.393,35369.3,412.393,48077.2,412.436,11591.2
411.475,1813.81,411.475,2632.49,411.496,45380.2,411.527,36609.3,411.527,48713.1,411.572,11999.7
410.609,1764.3,410.609,2493.16,410.631,46690.5,410.664,37736.1,410.664,49276.5,410.707,12237.5
409.746,1833.36,409.746,2637.27,409.768,47768.9,409.799,39588.3,409.799,49692.2,409.844,12689.2
408.881,1850.36,408.881,2694.59,408.902,48329.3,408.934,41902.4,408.934,49980.5,408.979,13004.8
408.016,1826.88,408.016,2598.68,408.037,49817.4,408.07,44377.5,408.07,50763,408.113,14109.5
407.15,1713.82,407.15,2699.34,407.172,50920.6,407.205,46900.8,407.205,51504.7,407.248,15060.5
406.285,1722.16,406.285,2681.48,406.307,52072.4,406.34,49362.4,406.34,51480.4,406.383,16346.4
405.42,1750.72,405.42,2675.19,405.441,52365.8,405.475,50332.3,405.475,52233.3,405.518,17695.3
404.555,1868.81,404.555,2787.33,404.576,53600.8,404.609,51509.9,404.609,52356.2,404.652,18310.1
403.689,1744.28,403.689,2613.53,403.711,54220.1,403.742,50902.2,403.742,53264.5,403.787,18950.6
402.822,1830.56,402.822,2690.98,402.844,54507.1,402.877,49815.5,402.877,53834.7,402.922,19102.9
401.957,1746.5,401.957,2658.72,401.979,55189.5,402.012,49370.1,402.012,54130.4,402.055,18960.7
401.092,1746.16,401.092,2640.89,401.113,56036.2,401.145,48437,401.145,54960,401.189,18619.3
400.225,1789.11,400.225,2732.73,400.246,56363.1,400.279,48142.1,400.279,55321.7,400.322,17975.2
399.357,1823.39,399.357,2758.17,399.379,57688.1,399.412,48891.7,399.412,55905.5,399.457,17510.1
398.492,1704.78,398.492,2694.18,398.514,58432.8,398.545,49574.6,398.545,56641.9,398.59,17400
397.625,1718.87,397.625,2705.2,397.646,59506.1,397.678,50678.4,397.678,57320.4,397.723,17422.6
396.758,1718.54,396.758,2667.2,396.779,60198.3,396.811,51951.9,396.811,58021.6,396.855,17849
395.891,1772.99,395.891,2629.21,395.912,62288.4,395.945,53781.3,395.945,58492,395.988,18416.4
395.023,1810.12,395.023,2695.01,395.045,63469.8,395.076,56526.5,395.076,59726,395.121,19032.6
394.156,1743.49,394.156,2703.14,394.178,64878.4,394.209,58308.2,394.209,60328.4,394.254,19639.9
393.287,1728.75,393.287,2777.53,393.309,66926.1,393.342,62013.9,393.342,61224.5,393.387,20805.9
392.42,1760.11,392.42,2837.49,392.441,69059.4,392.475,64496.8,392.475,62745.3,392.518,22415.2
391.553,1771.29,391.553,2715.98,391.574,70713.8,391.605,68119.2,391.605,63476.4,391.65,23793.4
390.684,1739.28,390.684,2738.5,390.705,72819.7,390.738,71797.9,390.738,64152.5,390.781,25755.6
389.814,1741.83,389.814,2766.77,389.838,74400.8,389.869,74527.9,389.869,64862.9,389.914,27282.4
388.947,1698.32,388.947,2812.3,388.969,76093.5,389.002,77222.4,389.002,65561.4,389.045,29056.1
388.078,1741.16,388.078,2736.93,388.1,78027.3,388.133,79040.9,388.133,66550.4,388.176,30101
387.209,1766.72,387.209,2724.9,387.23,78944.7,387.264,79992.6,387.264,67139.1,387.309,30788.7
386.34,1841.18,386.34,2580.53,386.361,79950.8,386.395,82057.2,386.395,67330.5,386.439,31320.8
385.471,1855.21,385.471,2666.33,385.492,80850.2,385.525,81152.8,385.525,68732.8,385.57,31444.3
384.602,1768.59,384.602,2875.75,384.623,82264,384.656,82359.4,384.656,68938.2,384.701,31881.1
383.732,1676.24,383.732,2725.69,383.754,81489.2,383.787,82036,383.787,68812.8,383.83,31412.1
382.863,1681.67,382.863,2728.04,382.885,81812.8,382.916,81083.2,382.916,69696.6,382.961,31092.8
381.992,1756.07,381.992,2704.53,382.014,82116.2,382.047,80311.8,382.047,69576.9,382.092,30802.3
381.123,1755.74,381.123,2821.82,381.145,81652.2,381.178,78109.6,381.178,69408.4,381.221,30198.7
380.252,1758.27,380.252,2663.27,380.273,80444.2,380.307,76994.3,380.307,70084.6,380.352,28828.2
379.383,1769.43,379.383,2711.59,379.404,78877.7,379.438,73880.1,379.438,68589,379.48,28144.8
378.512,1774.83,378.512,2765.64,378.533,77570.2,378.566,72404.2,378.566,68837.2,378.611,26778.1
377.641,1748.65,377.641,2716.29,377.662,76286.3,377.695,70104.7,377.695,68077.5,377.74,25874.2
376.77,1799.99,376.77,2767.45,376.791,74388.4,376.824,68150.6,376.824,67427.1,376.869,24476.9
375.898,1862.79,375.898,2804.23,375.922,73005,375.953,65918.8,375.953,66458.4,375.998,24403.3
375.027,1825.13,375.027,2846.74,375.049,71427.1,375.082,64316.4,375.082,66112.8,375.127,23110.1
374.156,1827.65,374.156,2869.15,374.178,70105.1,374.211,62774.8,374.211,65331.2,374.256,22448.6
373.285,1801.48,373.285,2733.77,373.307,68379.1,373.34,62352.5,373.34,64607.3,373.385,21850.5
372.414,1763.85,372.414,2724.65,372.436,67069.6,372.469,60026,372.469,63768.9,372.512,21634.1
371.541,1760.65,371.541,2810.15,371.562,65167.1,371.596,59747.9,371.596,62971,371.641,21070.8
370.67,1817.65,370.67,2829.68,370.691,64291.6,370.725,59991.6,370.725,62698,370.77,21075.3
369.797,1874.63,369.797,2852.07,369.818,63319.1,369.852,58675.9,369.852,61318.7,369.896,21108.6
368.926,1848.47,368.926,2696.77,368.947,61564.5,368.98,58527.1,368.98,61533.4,369.023,20757.8
368.053,1845.26,368.053,2776.48,368.074,61890.8,368.107,58819.6,368.107,60725,368.152,21028.9
367.18,1862.09,367.18,2813.19,367.201,60787.5,367.234,58625,367.234,60257.9,367.279,20901.6
366.307,1807.31,366.307,2784.01,366.328,61265.6,366.361,58398.9,366.361,59919.8,366.406,20992.2
365.434,1735.38,365.434,2829.29,365.455,60873,365.488,58702.7,365.488,59896.9,365.533,20804.9
364.561,1763.67,364.561,2840.2,364.582,61227.8,364.615,58602.7,364.615,59845.3,364.66,21158.8
363.688,1860.66,363.688,2816.76,363.709,60858.3,363.742,58511.3,363.742,59925.5,363.787,21040.2
362.814,1788.76,362.814,2801.91,362.836,61044.1,362.869,58342.7,362.869,59556.2,362.914,21259.4
361.941,1857.09,361.941,2933,361.963,61733.4,361.994,59487.6,361.994,60446.2,362.039,21326.9
361.066,1859.59,361.066,2915.27,361.088,62259.5,361.121,59204.4,361.121,60480.4,361.166,21431.5
360.193,1824.91,360.193,2883.25,360.215,61526.7,360.246,59256,360.246,60854.9,360.291,21032.7
359.318,1787.39,359.318,2759.72,359.34,62744.6,359.373,59670.7,359.373,60531.5,359.418,21128.7
358.443,1812.78,358.443,2862.13,358.467,63836.3,358.498,59916.6,358.498,60960.3,358.543,21667.9
357.57,1921.06,357.57,2941.62,357.592,64681.7,357.625,59722.2,357.625,61554.6,357.668,21518
356.695,1883.54,356.695,2858.17,356.717,65418.1,356.75,60310.9,356.75,61883,356.795,21388.1
355.82,1863.17,355.82,2874.77,355.842,65739.9,355.875,60536.6,355.875,63048.5,355.92,21458.3
354.945,1791.39,354.945,2771.36,354.967,67264.4,355,61019.2,355,63133.5,355.045,21485.6
354.07,1802.47,354.07,3002.21,354.092,67848.6,354.125,61730.3,354.125,63021.4,354.17,22058.5
353.195,1813.55,353.195,2913.1,353.217,69434.9,353.248,62032.6,353.248,64414.5,353.293,21725.9
352.318,1884.59,352.318,2943.95,352.34,69615.8,352.373,62520.4,352.373,64733.4,352.418,21878.7
351.443,1889.93,351.443,2843.47,351.465,71241.1,351.498,62448.4,351.498,65420.4,351.543,22551.2
350.568,1806.8,350.568,3019.89,350.59,71724.1,350.621,63172.9,350.621,66064.4,350.666,22287.1
349.691,1800.74,349.691,3016.46,349.713,73080.2,349.746,63020.9,349.746,66568.2,349.791,22416.9
348.814,1920.23,348.814,3010.17,348.838,74147.6,348.869,63608.1,348.869,67149,348.914,22341.3
347.939,1951.24,347.939,3015.3,347.961,74812.3,347.994,64337.6,347.994,67683.8,348.037,22890.5
347.062,1922.35,347.062,3003.31,347.084,75228.6,347.117,65931,347.117,67733.6,347.162,22198.7
346.186,1887.76,346.186,3022.7,346.207,76759.8,346.24,67016.2,346.24,68336.5,346.285,23146.9
345.309,1918.76,345.309,3127.61,345.33,78863.4,345.363,68816.7,345.363,68688.4,345.408,23801.1
344.432,1884.19,344.432,3144.11,344.453,79871.6,344.486,71246.4,344.486,69675.7,344.531,24415.1
343.555,1972.17,343.555,3069.41,343.576,80967.8,343.609,72971.2,343.609,70429,343.654,25362.3
342.678,1840.72,342.678,3111.56,342.699,82767.3,342.732,74723.9,342.732,71216.2,342.777,26360.4
341.799,1965.72,341.799,3142.3,341.822,83891,341.854,76379,341.854,71128.5,341.898,27241.4
340.922,1885.59,340.922,3124.61,340.943,85142.4,340.977,78722.8,340.977,71610.4,341.021,27555.2
340.045,1908.01,340.045,3081.29,340.066,86287.9,340.098,79134.8,340.098,71841.6,340.143,27997
339.166,1936.12,339.166,3160.42,339.188,87603.9,339.221,80341.1,339.221,72371.6,339.266,28327.6
338.287,1975.6,338.287,3205.36,338.309,88202,338.342,81347.7,338.342,73268.7,338.387,29116.4
337.41,1895.53,337.41,3210.44,337.432,88503.8,337.465,82049.3,337.465,73061.1,337.508,29187.7
336.531,1863.86,336.531,3252.51,336.553,89605.2,336.586,82406.3,336.586,73374.3,336.631,29748.4
335.652,1980.15,335.652,3297.41,335.674,89514,335.707,83889.9,335.707,73741.5,335.752,29626
334.773,1945.64,334.773,3191.53,334.795,91246.2,334.828,83919.3,334.828,73326.3,334.873,30340
333.895,1990.77,333.895,3270.55,333.916,91356.6,333.949,84082.4,333.949,73807,333.994,30046.9
333.016,1950.58,333.016,3269.92,333.037,91174.2,333.07,84862.4,333.07,74321.8,333.115,30621.2
332.135,2041.17,332.135,3263.6,332.158,90664.9,332.189,84888.7,332.189,74515,332.234,30453.3
331.256,1961.2,331.256,3322.67,331.277,91676.4,331.311,86148.6,331.311,74594.5,331.355,31087
330.377,2003.45,330.377,3324.87,330.398,91241.1,330.432,87268.8,330.432,74986.6,330.477,31382.2
329.496,1909.3,329.496,3366.85,329.518,92110,329.551,86769.1,329.551,74682.4,329.596,31447.2
328.617,2022.56,328.617,3357.68,328.639,91859.4,328.672,86601.9,328.672,74384,328.715,31554.8
327.736,1934.13,327.736,3376.92,327.758,90683,327.791,86335.3,327.791,74216.3,327.836,31364.2
326.855,2001.91,326.855,3441.58,326.877,91054.6,326.91,86974.7,326.91,74292.9,326.955,31798.3
325.975,1984.49,325.975,3560.16,325.996,90228,326.029,86004,326.029,74159.4,326.074,31465.7
325.094,1989.79,325.094,3454.45,325.115,89668.5,325.148,85317.6,325.148,73946.5,325.193,31658.4
324.213,1995.08,324.213,3465.14,324.234,89390.2,324.268,85284.2,324.268,74721.3,324.312,31382.7
323.332,1997.54,323.332,3478.66,323.354,88289.1,323.387,84090.3,323.387,74522.5,323.432,30922.6
322.451,2056.73,322.451,3452.46,322.473,87494.9,322.506,83594.7,322.506,73702.5,322.551,30587.6
321.57,2036.48,321.57,3582.27,321.592,87049.8,321.625,82308,321.625,73773.4,321.67,30689.5
320.688,1942.51,320.688,3490.84,320.709,85816.5,320.742,81557.7,320.742,74210.2,320.787,30048.4
319.807,2027.19,319.807,3561.05,319.828,86089.2,319.861,80527,319.861,73146.9,319.906,29937.7
318.924,2069.32,318.924,3543.36,318.945,84505.1,318.979,80041,318.979,73328.4,319.023,29047.6
318.043,2227.63,318.043,3653.21,318.064,85069.9,318.098,77990.7,318.098,72770.2,318.143,29090.2
317.16,2684.71,317.16,3678.01,317.182,83886.1,317.215,76700.6,317.215,73065.1,317.26,28390.3
316.277,2173.15,316.277,3708.47,316.299,82960.6,316.332,75830.3,316.332,72759.2,316.377,27857.9
315.395,2081.64,315.395,3568.96,315.416,82126.1,315.449,74858.3,315.449,72575.3,315.494,27504.2
314.512,2344.23,314.512,3639.07,314.533,81858.2,314.566,73408.1,314.566,72521.7,314.611,26989.1
313.629,2736.97,313.629,3675.18,313.65,80749.6,313.684,73317.6,313.684,72796.6,313.729,26768.7
312.746,2789.2,312.746,3632.01,312.768,79519.6,312.801,72352.3,312.801,72802.4,312.846,26537.1
311.863,2540.9,311.863,3784.15,311.885,79577.9,311.918,71650.6,311.918,72451.6,311.963,26305.6
310.979,2086.21,310.979,3732.49,311.002,78419.4,311.035,69862.6,311.035,72318.8,311.08,25573.3
310.096,2557.91,310.096,3898.7,310.117,78231.8,310.15,69212.6,310.15,72118.2,310.195,25554.2
309.211,2967.09,309.211,3793.29,309.234,76788.2,309.268,68147,309.268,72661.6,309.312,24989.2
308.328,2653.98,308.328,3789.73,308.35,77078.9,308.383,66951.7,308.383,71524.9,308.428,24701.6
307.443,2366.71,307.443,3707,307.465,75921.8,307.498,66509,307.498,72639.4,307.543,24391.5
306.559,2470.86,306.559,3915.49,306.582,75994.8,306.615,65441.8,306.615,72554.7,306.66,24403.7
305.676,2507.13,305.676,4008.02,305.697,75556.2,305.73,65610.1,305.73,72831.9,305.775,24037.2
304.791,2560.34,304.791,4052.46,304.812,75507.8,304.846,64339.9,304.846,73216.4,304.891,23803.7
303.906,2622.01,303.906,4057.34,303.928,74724.8,303.961,64330.4,303.961,73289.9,304.006,23166.2
303.021,2624.33,303.021,4141.3,303.043,74535.3,303.076,63730.4,303.076,73182.6,303.121,23240.9
302.135,2584.29,302.135,4146.16,302.158,74170.7,302.189,62195.8,302.189,73049.9,302.236,22651.8
301.25,2612.03,301.25,4097.35,301.271,73106,301.305,62164.1,301.305,73134.7,301.35,22774.5
300.365,2600.23,300.365,4158.68,300.387,72894.3,300.42,61178.1,300.42,72008.3,300.465,22120.7
299.479,2450.13,299.479,4084.49,299.5,71641.2,299.533,60601.8,299.533,72093.3,299.578,22223.8
298.594,2376.28,298.594,4047.02,298.615,70888,298.648,59879,298.648,70372,298.693,21505.5
297.707,2251.67,297.707,4068.81,297.729,69195.5,297.762,59133.8,297.762,70426.2,297.807,21775
296.82,2259.7,296.82,3901.58,296.844,69469.9,296.875,58245.1,296.875,69600.2,296.922,21370.2
295.934,2231.06,295.934,3985.45,295.957,68263.5,295.99,57187.5,295.99,69313.2,296.035,21030.5
295.049,2154.49,295.049,4066.47,295.07,68236.2,295.104,57201.9,295.104,68625.9,295.148,20981.3
294.162,2179.46,294.162,3834.49,294.184,67185.6,294.217,55744.5,294.217,68810,294.262,20492.3
293.275,2119.84,293.275,3929.59,293.297,66919,293.33,55581.5,293.33,68340.1,293.375,20539.1
292.387,2246.26,292.387,4013.39,292.41,66308.6,292.443,54606.9,292.443,68451,292.488,19920.8
291.5,2082.39,291.5,3809.73,291.521,65258.9,291.555,54007.5,291.555,68167.4,291.6,19869
290.613,2231.31,290.613,3859.71,290.635,65116.7,290.668,53850.6,290.668,67706.3,290.713,19462.3
289.725,2106.94,289.725,3816.72,289.748,64171.9,289.781,52837.5,289.781,66851.1,289.826,19013.5
288.838,2106.54,288.838,3869.5,288.859,64596,288.893,52863.9,288.893,67271.9,288.938,19085.9
287.949,2047,287.949,3843.41,287.973,63527.7,288.004,52845.3,288.004,66842.3,288.051,19408.9
287.062,2007.2,287.062,3859.56,287.084,63436.7,287.117,52922.5,287.117,66778.7,287.162,19120.8
286.174,1925.19,286.174,3757.49,286.195,62594.2,286.229,52706.8,286.229,66704,286.273,18807.5
285.285,2059.89,285.285,3852.45,285.307,63415.1,285.34,52747.3,285.34,66381.6,285.385,19020.6
284.396,2076.38,284.396,3860.15,284.418,62682.7,284.451,53271.8,284.451,66833.1,284.496,19363
283.508,2149.12,283.508,3786.27,283.529,62853.5,283.562,52485.1,283.562,65835.7,283.607,18985.2
282.619,2123.39,282.619,3827.73,282.641,61888,282.674,53667.5,282.674,66315.2,282.719,19577.8
281.73,2049.87,281.73,3661.09,281.752,62148.8,281.785,53668.5,281.785,65498.3,281.83,19365.9
280.84,2071.97,280.84,3789.71,280.863,61622.4,280.896,53455.7,280.896,65457.6,280.941,19626.5
279.951,1976.01,279.951,3845.2,279.973,61318.2,280.006,53386.4,280.006,65520.9,280.051,19667.7
279.061,1958.76,279.061,3799.5,279.084,61123.8,279.117,53929.8,279.117,65401.5,279.162,19849.4
278.172,1947.15,278.172,3852.15,278.193,61036.2,278.227,53888.5,278.227,65596.8,278.271,19918.6
277.281,1972.06,277.281,3781.18,277.305,60310.9,277.338,52782.6,277.338,65098.2,277.383,19830.5
276.393,1994.15,276.393,3738.32,276.414,59136.5,276.447,51963.5,276.447,64891.9,276.492,19745.2
275.502,1962.87,275.502,3858.35,275.523,59229,275.557,50563.5,275.557,64208.3,275.602,19373.6
274.611,1928.81,274.611,3880.07,274.633,58448.4,274.666,49621.7,274.666,63954.5,274.711,18575.3
273.721,1866.68,273.721,3758.62,273.742,57847.7,273.775,48292.8,273.775,63838.3,273.82,18321.9
272.83,1908.42,272.83,3651.25,272.852,57005.8,272.885,47009.3,272.885,63351.8,272.93,17557.8
271.939,1930.5,271.939,3846.97,271.961,55967.9,271.994,45274.6,271.994,62845.7,272.039,16982
271.047,1854.38,271.047,3823.79,271.07,54986.4,271.104,44101.7,271.104,62870.1,271.148,16333.5
270.156,1814.76,270.156,3783.78,270.178,54299.9,270.211,43139.5,270.211,62695.3,270.256,15985.3
269.266,1806,269.266,3794.27,269.287,53608,269.32,42169.3,269.32,62013,269.365,15006.3
268.373,1833.69,268.373,3846.82,268.395,52913.6,268.428,41252.8,268.428,61566.5,268.475,14972.6
267.48,1802.5,267.48,3809.63,267.504,52435.2,267.537,40426.3,267.537,61675.2,267.582,14529.6
266.59,1903.05,266.59,3806.1,266.611,52102.8,266.645,39759.9,266.645,61313,266.689,14330.6
265.697,1919.5,265.697,3698.88,265.719,51605.2,265.752,39116.1,265.752,61155.5,265.797,13918.7
264.805,1888.31,264.805,3796.23,264.826,51082.6,264.859,38834,264.859,60874.8,264.906,13546.2
263.912,1910.36,263.912,3789.9,263.934,50652.6,263.967,38507.2,263.967,61132,264.014,13549.2
263.02,1876.38,263.02,3735.96,263.041,50561.7,263.074,37698.9,263.074,60109.2,263.121,13580.2
262.127,1890.02,262.127,3721.24,262.148,50445.5,262.182,37422.8,262.182,59798.1,262.227,13188.4
261.234,1830.87,261.234,3538.56,261.256,49820,261.289,37256,261.289,59845.4,261.334,12903.1
260.34,1920.08,260.34,3661.03,260.363,49424.1,260.396,36554.7,260.396,60029.8,260.441,12858.6
259.447,1830.16,259.447,3663.13,259.469,48454.8,259.502,35405.9,259.502,59248.7,259.549,12646.3
258.553,1782.25,258.553,3690.4,258.576,48070.5,258.609,34604.5,258.609,58873.6,258.654,12439.6
257.66,1837.85,257.66,3658.92,257.682,47160.5,257.715,34242.6,257.715,58856.7,257.76,11978.4
256.766,1840.3,256.766,3663.81,256.789,47168.2,256.822,33078.1,256.822,58143.3,256.867,11917.4
255.871,1862.31,255.871,3584.81,255.895,45531.8,255.928,32473.4,255.928,57791,255.973,11255.2
254.979,1783.67,254.979,3676.38,255,44991.8,255.033,31427.1,255.033,58084.6,255.078,11194.3
254.084,1853.21,254.084,3681.26,254.105,44312.3,254.139,30979.4,254.139,57679.3,254.184,10730.9
253.189,1721.51,253.189,3616.28,253.211,42680.1,253.244,30372.6,253.244,57008.7,253.289,10482.9
252.295,1779.85,252.295,3710.58,252.316,42940.1,252.35,29891.8,252.35,57131.9,252.395,10229.4
251.398,1782.3,251.398,3715.46,251.422,41906.6,251.455,29534,251.455,57193.5,251.5,10291.7
250.504,1756.82,250.504,3672.85,250.525,41658.4,250.561,29416.6,250.561,56115.6,250.605,9962.96
249.609,1692.26,249.609,3700.07,249.631,40686.9,249.664,28964.1,249.664,56099.2,249.709,9969.42
248.713,1708.68,248.713,3618.39,248.736,40659.6,248.77,28802.2,248.77,55256.4,248.814,9679.92
247.818,1716.73,247.818,3651.19,247.84,39792,247.873,28096,247.873,54578.6,247.918,9641.77
246.922,1749.89,246.922,3672.81,246.943,39870.9,246.979,27878.5,246.979,54992.3,247.023,9687.37
246.025,1716.07,246.025,3535.38,246.049,38763.8,246.082,27845.3,246.082,54314.9,246.127,9501.34
245.131,1715.74,245.131,3587.71,245.152,38898.6,245.186,28102.2,245.186,53715.8,245.23,9527.41
244.234,1732.14,244.234,3662.33,244.256,38640.1,244.289,27667.2,244.289,54243.8,244.334,9444.69
243.338,1712.29,243.338,3550.07,243.359,38166.9,243.393,27366.3,243.393,53815,243.438,9403.83
242.441,1756.57,242.441,3507.57,242.463,38034.1,242.496,27684.4,242.496,53746.1,242.541,9449.42
241.543,1731.15,241.543,3604.46,241.566,37525,241.6,27361.3,241.6,53493.3,241.645,9294.28
240.646,1778.19,240.646,3659.51,240.67,37774.2,240.703,27353.3,240.703,52911.6,240.748,9225.6
239.75,1585.58,239.75,3438.67,239.771,37209.7,239.805,27242.1,239.805,52589.3,239.852,9304.64
238.852,1769.15,238.852,3560.59,238.875,36862.6,238.908,27133.8,238.908,52367.5,238.953,9238.77
237.955,1626.75,237.955,3660.19,237.977,36596.5,238.01,27081.2,238.01,52496.7,238.057,9206.35
237.057,1684.92,237.057,3506.31,237.08,36544.9,237.113,26970.2,237.113,51996.4,237.158,9268.64
236.16,1731.93,236.16,3589.17,236.182,36568.5,236.215,27084.7,236.215,52184.1,236.26,9097
235.262,1642.52,235.262,3471.55,235.283,35820.9,235.316,26876.3,235.316,51962.5,235.363,9390.35
234.363,1656.12,234.363,3543.26,234.385,35861.3,234.418,26990.8,234.418,51844,234.465,9291.13
233.465,1758.76,233.465,3495.27,233.486,36049.2,233.52,26804.7,233.52,51572.4,233.566,9016.62
232.566,1722.26,232.566,3530.76,232.588,35983.9,232.621,27205.8,232.621,51206.4,232.668,9190.17
231.668,1791.47,231.668,3502.27,231.689,35712.7,231.723,26955.8,231.723,51121.4,231.77,9352.53
230.77,1766.09,230.77,3518.28,230.791,35472.2,230.824,26650.2,230.824,50508,230.869,9264.52
229.869,1715.7,229.869,3520.39,229.893,35206.8,229.926,26553.3,229.926,50843.1,229.971,9029.15
228.971,1723.71,228.971,3472.45,228.992,35219.5,229.025,26829,229.025,50549.8,229.072,9230.37
228.07,1670.57,228.07,3449.54,228.094,35596.3,228.127,26821.1,228.127,50712.4,228.172,9150.77
227.172,1639.68,227.172,3446.1,227.193,35375.5,227.227,26974.4,227.227,50866.6,227.273,9351.89
226.271,1725.5,226.271,3450.99,226.293,35618.7,226.328,26571.8,226.328,50556.8,226.373,9233.39
225.371,1711.28,225.371,3486.45,225.395,35223,225.428,27064,225.428,50258.1,225.473,9184.38
224.471,1585.96,224.471,3438.56,224.494,34955.1,224.527,27047.7,224.527,49962.4,224.572,9107.62
223.572,1482.91,223.572,3335.15,223.594,34865.1,223.627,26934.2,223.627,49389.1,223.674,9186.41
222.672,1485.4,222.672,3356.72,222.693,34850,222.727,27170.6,222.727,49879.3,222.771,9192.97
221.77,1551.73,221.77,3403.26,221.793,34923.9,221.826,26948.8,221.826,49483.9,221.871,9396.62
220.869,1445.97,220.869,3419.26,220.893,34845,220.926,27060.2,220.926,49679.8,220.971,9070.09
219.969,1481.77,219.969,3421.38,219.99,34563.6,220.025,27229.8,220.025,49573.1,220.07,9326.42
219.068,1439.87,219.068,3395.75,219.09,35178.4,219.123,27782.2,219.123,49269.5,219.17,9554.9
218.166,1436.82,218.166,3356.27,218.188,35160.5,218.223,27122.3,218.223,49850.8,218.268,9339.47
217.266,1439.31,217.266,3216.96,217.287,35655.7,217.32,27366.6,217.32,49893.9,217.367,9659.38
216.363,1547.17,216.363,3249.62,216.385,35535.2,216.42,27791.2,216.42,49834.4,216.465,9804.48
215.461,1394.4,215.461,3182.46,215.484,35991.3,215.518,28185,215.518,50562.3,215.562,9619.63
214.559,1438.48,214.559,3190.16,214.582,36610.8,214.615,28839.3,214.615,50743.8,214.66,9714.79
213.656,1479.77,213.656,3292.08,213.68,37559.8,213.713,29185.7,213.713,51396.3,213.758,9934.62
212.754,1473.95,212.754,3194.48,212.777,37804.7,212.811,30546,212.811,51849.2,212.855,10290.1
211.852,1462.58,211.852,3210.48,211.875,38955.3,211.908,32116.3,211.908,51944.5,211.953,10936.3
210.949,1381.99,210.949,3184.94,210.973,39847.9,211.006,34065.4,211.006,52474.5,211.051,11374.6
210.047,1467.56,210.047,3167.72,210.068,41440.8,210.104,36628.5,210.104,53156.7,210.148,12277.9
209.145,1301.17,209.145,3175.41,209.166,42720.1,209.199,38587.1,209.199,53622.7,209.246,13313.7
208.24,1461.46,208.24,3102.84,208.264,44165.1,208.297,41400.2,208.297,54797.1,208.342,14415.6
207.338,1422.44,207.338,3204.63,207.359,46030.1,207.393,43775,207.393,54819.7,207.439,15256.9
206.434,1483.03,206.434,3251.05,206.455,47036.7,206.49,46325.9,206.49,55852.3,206.535,16374.5
205.529,1441.25,205.529,3294.69,205.553,49771.9,205.586,48779.1,205.586,56292.5,205.631,17547.1
204.625,1344.17,204.625,3202.79,204.648,50556.1,204.682,51140,204.682,57341,204.729,18099.7
203.723,1371.57,203.723,3177.28,203.744,52728.2,203.777,53137.8,203.777,57628.6,203.824,19387.6
202.818,1293.89,202.818,2974.85,202.84,54050.7,202.873,55430.6,202.873,58270,202.92,19939.6
201.914,1398.68,201.914,3084.84,201.936,56489.4,201.969,57739.2,201.969,59334.1,202.016,21163.1
201.008,1356.96,201.008,3203.09,201.031,58053.8,201.064,60162.9,201.064,59306.2,201.111,22156.7
200.104,1331.83,200.104,3147.21,200.127,58421.2,200.16,61444.5,200.16,60250.8,200.205,22870.9
199.199,1406.17,199.199,3210.15,199.221,60885.3,199.256,63388.6,199.256,60620.5,199.301,23725.7
198.293,1251.22,198.293,3176.39,198.316,60854.3,198.35,64821.1,198.35,61434.7,198.396,24187.9
197.389,1311.73,197.389,3059.79,197.41,63408.1,197.445,66070.6,197.445,61533.4,197.49,25006.2
196.482,1457.82,196.482,3097.86,196.506,63326.9,196.539,67198.3,196.539,62214.6,196.584,25205.8
195.578,1377.48,195.578,3066.9,195.6,64413.4,195.633,67685,195.633,61807.9,195.68,26128.5
194.672,1349.62,194.672,3157.39,194.693,63929,194.729,68268.2,194.729,62756.5,194.773,26117.9
193.766,1321.76,193.766,3076.76,193.787,65119.9,193.822,68075.7,193.822,62730.6,193.867,26330.9
192.859,1396,192.859,3045.82,192.881,65013.6,192.916,67679.1,192.916,62950.3,192.961,26805.9
191.953,1359.87,191.953,2868.7,191.975,64752.8,192.01,67583.4,192.01,64165.7,192.055,26505.6
191.047,1334.79,191.047,3083.26,191.068,66359.3,191.104,67404.9,191.104,63163.3,191.148,26390.2
190.141,1309.72,190.141,3115.75,190.162,65251.9,190.195,67028,190.195,64099.7,190.242,26004.6
189.232,1397.68,189.232,3184.07,189.256,66468.9,189.289,66190.9,189.289,63362.4,189.336,26490.3
188.326,1386.39,188.326,3015.33,188.348,65124.8,188.383,66307.7,188.383,64733.9,188.428,25553.6
187.418,1375.1,187.418,3025.78,187.441,66079.6,187.475,65261.6,187.475,64379.7,187.521,25557
186.512,1402.39,186.512,3016.93,186.533,65752.8,186.568,65100.2,186.568,64560.2,186.613,25450.1
185.604,1294.69,185.604,3010.84,185.627,66167.1,185.66,64991.3,185.66,65357.7,185.705,25519.6
184.695,1269.65,184.695,3007.51,184.719,66363.8,184.752,64317.9,184.752,64965.1,184.799,25187
183.789,1332.74,183.789,3084.03,183.811,66318,183.844,64330.3,183.844,66018.3,183.891,24865.5
182.881,1293.94,182.881,3042.14,182.902,66401.6,182.936,64158.3,182.936,65708.3,182.982,25064.4
181.973,1323.97,181.973,3052.57,181.994,66664.1,182.027,64110.2,182.027,66174.6,182.074,24619.2
181.062,1296.2,181.062,3016.21,181.086,67829.2,181.119,64851.9,181.119,66679.3,181.166,24884.2
180.154,1356.48,180.154,2946.84,180.178,68011.5,180.211,65720,180.211,67395.6,180.258,24984
179.246,1394.74,179.246,3081.07,179.268,69093.4,179.303,66021,179.303,67822.9,179.348,25191
178.338,1322.96,178.338,2978.72,178.359,69258.9,178.393,67369.8,178.393,68365.4,178.439,25612.5
177.428,1402.45,177.428,2991.89,177.451,70653.5,177.484,68982,177.484,69017.8,177.531,26399.6
176.52,1407.68,176.52,3016.06,176.541,71618.8,176.574,69777.1,176.574,69645.2,176.621,26696.9
175.609,1333.19,175.609,2922.02,175.631,72682.6,175.666,71605.5,175.666,69560.3,175.711,27656.7
174.699,1321.94,174.699,2957.19,174.723,74309.4,174.756,73372.7,174.756,70335.8,174.803,28159.8
173.789,1332.68,173.789,2904.42,173.812,75037,173.846,75207.9,173.846,71311.5,173.893,29058.4
172.879,1351.65,172.879,3049.46,172.902,76311.1,172.936,76921.5,172.936,71924.2,172.982,29533.6
171.969,1400.84,171.969,2971.97,171.992,76985.9,172.025,77843.4,172.025,72487.2,172.072,30003.2
171.059,1301.7,171.059,2957.67,171.082,78572.2,171.115,79245.5,171.115,72679.2,171.162,30653.8
170.148,1392.06,170.148,3097.13,170.172,79751.5,170.205,80877.7,170.205,73909.1,170.252,31477.1
169.238,1452.19,169.238,2978.5,169.26,80364.8,169.295,81872.5,169.295,74367.1,169.34,31759.3
168.328,1317.42,168.328,3002.63,168.35,80678.8,168.383,82833.8,168.383,75041.8,168.43,32000.2
167.416,1355.59,167.416,2996.56,167.439,82084.7,167.473,83300.9,167.473,75474.7,167.52,33204.3
166.506,1286.74,166.506,2938.37,166.527,82883.8,166.561,85169.8,166.561,76176.3,166.607,33357
165.594,1401.7,165.594,2935.07,165.615,83529,165.65,86075.1,165.65,76227.5,165.695,34412.2
164.682,1346.58,164.682,3118.25,164.705,83578.8,164.738,86157.4,164.738,76448.7,164.785,34254.8
163.77,1316.16,163.77,2922.97,163.793,83513.4,163.826,85842,163.826,77094.9,163.873,34766.5
162.857,1381.7,162.857,2944.34,162.881,83938.8,162.914,85762.4,162.914,77313.1,162.961,34515.8
161.945,1408.85,161.945,2930.07,161.969,82900.3,162.002,85291,162.002,77821.8,162.049,34923.1
161.033,1364.73,161.033,2998.02,161.057,83827.1,161.09,83613.9,161.09,76732.7,161.137,34395.7
160.121,1345.29,160.121,2800.18,160.145,82854.8,160.178,83814.4,160.178,77731.7,160.225,33687.7
159.209,1364.21,159.209,2922.91,159.23,83737.5,159.266,82951.8,159.266,77473,159.312,34149.6
158.297,1325.6,158.297,2974.39,158.318,81963.1,158.354,82478.5,158.354,77953.9,158.398,33625.4
157.383,1300.7,157.383,2867.02,157.406,82322.5,157.439,81301.6,157.439,77027.1,157.486,33183.6
156.471,1382.59,156.471,2896.59,156.492,82465.5,156.527,81080.7,156.527,78121.1,156.572,32722.8
155.557,1365.9,155.557,2841.29,155.58,81658.6,155.613,80172.8,155.613,78368.9,155.66,32615.2
154.643,1390.27,154.643,2887.27,154.666,81968.6,154.699,78816.4,154.699,77524.7,154.746,32280.5
153.729,1346.22,153.729,2911.34,153.752,80248.3,153.785,79020.2,153.785,78511.3,153.832,31571.1
152.816,1397.94,152.816,2899.84,152.838,80916.8,152.873,77828.7,152.873,77648.2,152.918,31674.5
151.902,1370.32,151.902,2852.79,151.924,79645.9,151.959,77045.2,151.959,78946.2,152.004,31080.4
150.988,1381,150.988,2865.91,151.01,80133.8,151.045,75816.2,151.045,77241,151.09,30634.1
150.072,1397.14,150.072,2761.47,150.096,79508.7,150.129,75279.5,150.129,77702,150.176,29876.3
149.158,1446.08,149.158,2870.28,149.182,79211.9,149.215,74409.4,149.215,78121.7,149.262,30133.1
148.244,1432.13,148.244,2839.67,148.266,78409.6,148.301,74217.5,148.301,77497.3,148.346,29266.3
147.328,1420.93,147.328,2770.81,147.352,77902.7,147.385,73536.6,147.385,78490.7,147.432,29241.6
146.414,1412.46,146.414,2986.11,146.436,78314,146.471,71965.2,146.471,78371.9,146.518,28454.6
145.498,1406.73,145.498,2780.68,145.521,76553.6,145.555,70872.5,145.555,78280.4,145.602,28137.8
144.584,1343.64,144.584,2842.96,144.605,76304,144.641,69070.1,144.641,76864.4,144.686,27537
143.668,1387.07,143.668,2812.38,143.689,74855.9,143.725,68663.7,143.725,77750.7,143.771,26578.8
142.752,1343.13,142.752,2891.01,142.773,74726.9,142.809,66278.2,142.809,77271.7,142.855,26278.9
141.836,1323.77,141.836,2723.96,141.859,73418.9,141.893,64540.5,141.893,76809.3,141.939,25556
140.92,1440.86,140.92,2838.05,140.941,72567,140.977,63231.9,140.977,76890.1,141.023,25324.6
140.004,1394.2,140.004,2845.69,140.025,72277.6,140.061,61940.1,140.061,76883.6,140.105,24340.2
139.088,1374.84,139.088,2785.13,139.109,70370.6,139.145,60951.7,139.145,76710.6,139.189,23773.6
138.17,1325.48,138.17,2757.33,138.193,69920.7,138.227,58548.1,138.227,76802.3,138.273,22830.9
137.254,1404.3,137.254,2824.97,137.275,68170.4,137.311,56936.3,137.311,76179.5,137.357,21981.2
136.336,1425.85,136.336,2658.12,136.359,67061.4,136.393,54943.3,136.393,75589.7,136.439,21300.8
135.42,1395.59,135.42,2682.15,135.441,65344.9,135.477,53379.1,135.477,75411.7,135.521,20359.1
134.502,1378.97,134.502,2681.63,134.525,64920.9,134.559,52109.8,134.559,75255.5,134.605,20227.1
133.584,1405.95,133.584,2692.02,133.607,63042,133.641,50200.7,133.641,74333.8,133.688,19206.9
132.666,1329.41,132.666,2773.23,132.689,61746.9,132.723,48627.4,132.723,74107.1,132.77,18612
131.748,1383.63,131.748,2805.38,131.771,60561.1,131.807,47340.7,131.807,73796,131.852,18047.4
130.83,1380.64,130.83,2720.43,130.854,59547.4,130.887,45844.8,130.887,73229.1,130.934,17502
129.912,1358.59,129.912,2738.97,129.936,58101.2,129.969,44341.3,129.969,72801.2,130.016,16763.6
128.994,1350.17,128.994,2866.38,129.018,56568.4,129.051,43205.8,129.051,72294.6,129.098,16480
128.076,1409.78,128.076,2765.14,128.098,55428.1,128.133,42108.9,128.133,72022.2,128.18,15976
127.156,1374.14,127.156,2625.83,127.18,53861.1,127.213,40190.6,127.213,70593.5,127.26,15322.6
126.238,1425.57,126.238,2709.67,126.26,53124.4,126.295,39788.5,126.295,70365,126.342,14870.8
125.318,1411.7,125.318,2627.55,125.342,51610,125.375,38782.6,125.375,70634.5,125.422,14500.7
124.4,1354.32,124.4,2681.44,124.422,51137.8,124.457,37274,124.457,68684.6,124.502,14258.6
123.48,1438.34,123.48,2708.11,123.502,50111.2,123.537,37370.2,123.537,69424.7,123.584,13774.7
122.561,1334.77,122.561,2631.48,122.584,49386.6,122.617,35968.4,122.617,68247.9,122.664,13763.9
121.641,1361.69,121.641,2636.41,121.664,47928.5,121.697,34885.2,121.697,67574.4,121.744,13098
120.721,1290.78,120.721,2578.84,120.744,46598.7,120.777,34403,120.777,66969,120.824,13087.4
119.801,1374.76,119.801,2591.93,119.822,46521.8,119.857,33817.7,119.857,66146.6,119.904,12604
118.881,1428.82,118.881,2531.68,118.902,44894,118.938,33050.7,118.938,65992.7,118.984,12047.4
117.959,1347.07,117.959,2626.25,117.982,44822.9,118.016,32077.5,118.016,65015.9,118.062,12075
117.039,1360.39,117.039,2631.18,117.062,43329.1,117.096,31957.3,117.096,65133.8,117.143,11822.9
116.117,1324.84,116.117,2579.09,116.141,43779.6,116.176,31386.5,116.176,64632.7,116.221,11565.4
115.197,1479.3,115.197,2556.88,115.219,42205,115.254,30612.4,115.254,64264.8,115.301,11142.5
114.275,1354.18,114.275,2504.83,114.299,41933.7,114.332,30177.7,114.332,63427.5,114.379,11099.6
113.354,1367.49,113.354,2580.33,113.377,41412.9,113.412,29556,113.412,62845.6,113.457,10644.4
112.434,1364.52,112.434,2531,112.455,40718.7,112.49,29043.1,112.49,63286.6,112.537,11065.5
111.512,1394.09,111.512,2435.59,111.533,40610.5,111.568,28687.7,111.568,62252,111.615,10499.3
110.59,1312.47,110.59,2364.62,110.611,39561.5,110.646,28579.2,110.646,62758.1,110.693,10326.4
109.668,1314.93,109.668,2529.55,109.689,39624.4,109.725,27752.2,109.725,62092.7,109.771,10365.1
108.744,1401.43,108.744,2485.7,108.768,38714.2,108.803,27849.9,108.803,62107.9,108.848,10056.8
107.822,1452.65,107.822,2520.46,107.846,39080.8,107.879,28058.7,107.879,61692.2,107.926,10293.4
106.9,1468.63,106.9,2528.11,106.922,38750.9,106.957,27714.6,106.957,62100.5,107.004,10174.9
105.977,1387.08,105.977,2497.82,106,38231.5,106.033,27479,106.033,61890.8,106.08,10051.1
105.055,1400.36,105.055,2454.01,105.076,37769.1,105.111,26596.2,105.111,60849.7,105.158,9623.9
104.131,1294.47,104.131,2486.04,104.154,36917,104.188,26512.6,104.188,61398.7,104.234,9543.52
103.207,1353.79,103.207,2490.98,103.23,37107.6,103.264,26320.7,103.264,60672.2,103.311,9398.2
102.283,1386.02,102.283,2514.86,102.307,36542.8,102.342,26210.1,102.342,60893.4,102.387,9418.06
101.359,1372.22,101.359,2490.03,101.383,36690.1,101.418,25842.4,101.418,60781.6,101.465,9237.63
100.436,1328.66,100.436,2427.31,100.459,36580.3,100.494,25943,100.494,61027.1,100.541,9105.97
99.5117,1517.8,99.5117,2418.73,99.5352,36446.2,99.5703,25737.9,99.5703,60896.4,99.6152,9266.57
98.5879,1363.32,98.5879,2296.55,98.6113,36001,98.6445,25411.1,98.6445,60887.5,98.6914,9162.01
97.6641,1414.45,97.6641,2366.42,97.6856,35796.7,97.7207,25260.2,97.7207,59845.5,97.7676,8979.06
96.7383,1454.74,96.7383,2474.13,96.7617,35522.2,96.7969,24957.9,96.7969,59415,96.8438,8825.92
95.8144,1470.68,95.8144,2465.55,95.8379,34907.1,95.8711,24699,95.8711,59298.2,95.918,8821.53
94.8887,1432.56,94.8887,2502.92,94.9121,35597.8,94.9473,25053.8,94.9473,59719.4,94.9941,8836.07
93.9648,1297.16,93.9648,2302.46,93.9863,34210.1,94.0215,24751.8,94.0215,59532.3,94.0684,8864.11
