X [s],R TIBIALIS ANTERIOR: EMG 1->MAV [Volts],L TIBIALIS ANTERIOR: EMG 2->MAV [Volts],R VASTUS LATERALIS: EMG 3->MAV [Volts],L VASTUS LATERALIS: EMG 4->MAV [Volts],R RECTUS FEMORIS: EMG 5->MAV [Volts],L RECTUS FEMORIS: EMG 6->MAV [Volts],R GASTROCNEMIUS MEDIAL HEAD: EMG 7->MAV [Volts],L GASTROCNEMIUS MEDIAL HEAD: EMG 8->MAV [Volts],R SEMITENDINOSUS: EMG 9->MAV [Volts],L SEMITENDINOSUS: EMG 10->MAV [Volts],R GASTROCNEMIUS LATERAL HEAD: EMG 11->MAV [Volts],L GASTROCNEMIUS LATERAL HEAD: EMG 12->MAV [Volts]
0.062307692307692175,6.786704310002278e-06,3.751430562222898e-06,5.926476963461861e-06,7.130795267329404e-06,1.2193547966650916e-05,1.0105223690715093e-05,6.2712672715292685e-06,8.602972973174399e-06,5.545319313426944e-06,1.1024897674379493e-05,1.6436636955319272e-05,4.826365042731595e-06
0.12461538461538436,6.756631330281e-06,3.7192594466735803e-06,6.0894306066927585e-06,8.551219449515202e-06,1.2609674240119754e-05,9.650631997004666e-06,7.254584077287518e-06,6.562905324850969e-06,5.514546948622486e-06,1.1482286871474419e-05,1.5535846015997854e-05,4.365479013065017e-06
0.18692307692307655,7.537130287479007e-06,3.7808041734403255e-06,6.640535629761265e-06,1.3312542929592534e-05,1.3034892334928827e-05,9.591185392565649e-06,8.000114432604732e-06,6.340505073154645e-06,5.601968409270815e-06,1.2045281182319438e-05,1.5733768203792428e-05,4.100417101682297e-06
0.24923076923076873,8.430228101730108e-06,3.750031812425429e-06,6.8797207835776435e-06,1.7637458314112563e-05,1.1992128912415486e-05,9.858345425565555e-06,8.621855981753393e-06,5.8957045955783846e-06,5.759327072496489e-06,1.1613768782107551e-05,1.5757546856320913e-05,4.98722058163518e-06
0.31153846153846093,8.184748594667705e-06,3.845146366643348e-06,5.820172425075043e-06,1.3563617354842942e-05,1.2736959897807764e-05,9.993324189849772e-06,1.3818188745536494e-05,2.722165001429744e-05,5.505455100755322e-06,1.1671816628696281e-05,1.639187713398845e-05,5.2257063636318435e-06
0.3738461538461531,7.1433839408996395e-06,3.82696271306789e-06,5.932071919545479e-06,1.6996833793806823e-05,1.3531446277189236e-05,9.939472565179131e-06,1.3004819322048889e-05,8.001163504782009e-05,5.391457495799538e-06,1.1806795363848247e-05,1.590721245250393e-05,5.044569063272774e-06
0.4361538461538453,6.955252939633283e-06,3.6584141033320822e-06,6.0684494184689205e-06,3.216760766804328e-05,1.4368594367416184e-05,1.038707056674563e-05,8.814183275518416e-06,7.438239115155435e-05,5.645329485541121e-06,1.1189250059118195e-05,1.596945650893152e-05,4.691386295500403e-06
0.49846153846153746,1.4258093639559395e-05,3.7863991451558833e-06,6.705577158783171e-06,3.103672335503423e-05,1.4712685311242998e-05,9.952061291566376e-06,8.968045086277244e-06,3.881723506727515e-05,5.901299578899473e-06,1.1627756156921502e-05,1.610863148281775e-05,5.3355077450116065e-06
0.5607692307692297,2.145183225958173e-05,3.7815035483390604e-06,7.2182167286882756e-06,2.3751366961969702e-05,2.2563833512852702e-05,9.07225148694124e-06,7.456702548817399e-06,2.544384680334133e-05,5.804086884590258e-06,1.2028496206539785e-05,1.5508570478080704e-05,6.081737474517013e-06
0.6230769230769219,1.8727079582466406e-05,3.712965108585801e-06,5.961445544263218e-06,2.057831694036357e-05,3.0049210329963217e-05,9.591185402986942e-06,6.053063273725456e-06,9.870234741763776e-06,6.460797031830149e-06,1.1851555155336277e-05,1.5750553137886907e-05,5.710371033510834e-06
0.685384615384614,1.6932491501364666e-05,3.7549274215583257e-06,5.8418529571705825e-06,1.8667633032502332e-05,2.0796520976062992e-05,1.07038859916031e-05,7.140586493648016e-06,9.558314883406637e-06,5.841852950302003e-06,1.1614468103952428e-05,1.556452020399964e-05,4.642430253909424e-06
0.7476923076923062,1.3247501311515937e-05,3.7101676222543273e-06,6.697884090556272e-06,1.4102833086582222e-05,1.2971249476834146e-05,9.98493169959147e-06,6.958050446096801e-06,1.2788014005830443e-05,4.752231638368206e-06,1.1510961096898123e-05,1.53246356582315e-05,5.168357879388926e-06
0.8099999999999984,9.721967906036374e-06,3.703173902636081e-06,6.751036380118572e-06,7.067152437182737e-06,1.3005518722053467e-05,1.0375181196309313e-05,7.2790621004514834e-06,1.4028000277477304e-05,5.411739287334664e-06,1.1556420280101064e-05,1.5658935396108594e-05,7.961648982283502e-06
0.8723076923076906,1.128086773197386e-05,3.751430558433337e-06,6.290849708060856e-06,6.794397416835333e-06,1.1934081056352852e-05,9.987729230923984e-06,8.30154371461352e-06,1.3376185735580748e-05,5.680298074395296e-06,1.1410950921704929e-05,1.6438035624825414e-05,9.845057342990534e-06
0.9346153846153827,1.3611174707979975e-05,3.7080695022950748e-06,5.869128462402765e-06,9.285559888638773e-06,1.1423539592196144e-05,9.273670587598796e-06,6.2314030811213195e-06,2.1188868521685816e-05,5.633440159395302e-06,1.1494176158066694e-05,1.5700198341998355e-05,1.4931588745525915e-05
0.9969230769230749,1.7583606720232107e-05,3.6877877183390713e-06,6.271267265608079e-06,1.5111327256060273e-05,1.1703987672243936e-05,1.0375181208625387e-05,5.503357011823103e-06,3.176616812889203e-05,5.68099744242545e-06,1.1937577902187968e-05,1.5467307541901694e-05,2.511514200828439e-05
1.0592307692307672,2.22449200194319e-05,3.7080695032424654e-06,6.644731813073197e-06,1.3702792380361946e-05,1.1859248235168707e-05,9.969545553900616e-06,7.362287346760847e-06,2.671530473179473e-05,5.822969921827811e-06,1.1538935962818187e-05,1.546381068540844e-05,2.492491288042705e-05
1.1215384615384594,2.53074693129444e-05,3.7038732803769867e-06,6.773416222216611e-06,8.561710028232029e-06,1.4535044900772694e-05,9.584191686684563e-06,1.0738155172163033e-05,1.2429236305896059e-05,5.561404857227596e-06,1.1091337989673397e-05,1.5988339517510514e-05,1.2383077774795008e-05
1.1838461538461515,2.0299966962985157e-05,3.686388982752457e-06,5.799191268825628e-06,9.591884748516576e-06,1.5761743084870736e-05,9.638742666121895e-06,8.95195950055457e-06,7.076244275102302e-06,5.545319293058052e-06,1.1929185428035301e-05,1.611982143003843e-05,5.660715660601075e-06
1.2461538461538437,1.256771192714723e-05,3.684290857108863e-06,5.836957360827455e-06,1.4428040944854578e-05,1.3328628465340368e-05,9.51705198417585e-06,6.166361495019146e-06,8.611365448274455e-06,5.4404135044687035e-06,1.1836168975776219e-05,1.5277777788232545e-05,6.15237407378307e-06
1.308461538461536,1.0025495267977173e-05,3.666107192164721e-06,6.416736606714343e-06,1.697934936236341e-05,1.3535642493186136e-05,9.767427109134511e-06,6.440515256637506e-06,1.4419648513334475e-05,5.541822439643814e-06,1.1103926696165444e-05,1.622123040926719e-05,6.065651949901015e-06
1.370769230769228,9.27227180606375e-06,3.6605122195017733e-06,6.155171544245756e-06,1.9544645349848604e-05,1.292229339687386e-05,9.856946682636666e-06,5.658617543010299e-06,3.0962589886958845e-05,6.075443156087582e-06,1.1348007463851672e-05,1.6173673106341842e-05,5.0550596576215415e-06
1.4330769230769203,8.093830274210253e-06,3.7185600859857005e-06,6.4433127282844305e-06,2.7954591701255064e-05,1.24054576311039e-05,9.70867984146177e-06,6.437018402275877e-06,5.3532018493503605e-05,5.585882858364736e-06,1.1431232697608115e-05,1.5198748761709642e-05,4.878118582970122e-06
1.4953846153846124,7.832964567692595e-06,3.7556267964570606e-06,6.476882577525582e-06,2.5682332616365026e-05,1.3157981733276832e-05,9.876529097851972e-06,6.69368786319069e-06,5.5647618359463044e-05,5.553711759394749e-06,1.12046362145198e-05,1.5729572012427677e-05,5.081635771138811e-06
1.5576923076923046,7.756733037448763e-06,3.747933700045299e-06,6.3251188999894716e-06,1.4993133497161656e-05,1.2649538418448476e-05,1.0041580864831682e-05,6.358688765336259e-06,2.792242061673278e-05,5.73554845644253e-06,1.1462005053175517e-05,1.6248505898156887e-05,5.517344437085588e-06
1.6199999999999968,8.551219469173551e-06,3.7108669933635003e-06,6.585984577374878e-06,1.2061366718304119e-05,1.1517255422432982e-05,9.62545462120564e-06,6.811881710907149e-06,8.124602678568256e-06,5.2956435766304825e-06,1.1544530938086458e-05,1.5860354555741196e-05,5.364181993883221e-06
1.682307692307689,8.243495866603704e-06,3.6891864681365407e-06,6.167760225631961e-06,1.5049083206738108e-05,1.1742453149092095e-05,9.517051993649754e-06,6.634940628913455e-06,9.561811797453856e-06,5.622949588494445e-06,1.1492777415848347e-05,1.5365199304776902e-05,4.795592697822334e-06
1.7446153846153811,7.2839577072159045e-06,3.7423387273823512e-06,6.000610383220343e-06,1.4750451458193462e-05,1.3296457356422782e-05,9.659024458367564e-06,5.982426721118372e-06,8.14138757689875e-06,5.757928355857681e-06,1.1813089727752413e-05,1.4928791228404256e-05,4.858536173676005e-06
1.8069230769230733,6.886015123560204e-06,3.7773073188418494e-06,6.384565512481307e-06,1.041504543503417e-05,1.3164276095286217e-05,1.0124106708294297e-05,7.135690875041215e-06,5.295643544892907e-06,5.8145774678071876e-06,1.1483685600902997e-05,1.6463912428340183e-05,4.906792833025975e-06
1.8692307692307655,6.759428820165188e-06,3.7458355838756082e-06,5.7789094860538626e-06,9.013504243663798e-06,1.3599984764785707e-05,9.847155467923585e-06,1.224600084436626e-05,6.639136836146993e-06,6.035578944600198e-06,1.1322830062236259e-05,1.646531117742711e-05,5.4026474612574775e-06
1.9315384615384577,7.62664988845548e-06,3.70737012644895e-06,6.5223417687813406e-06,1.4718979647435996e-05,1.2497075386145677e-05,9.649932624948103e-06,1.622822408127907e-05,6.446809611778311e-06,5.366979460082651e-06,1.2083746623877308e-05,1.5831680272052988e-05,5.396353107064064e-06
1.9938461538461498,8.484079761454193e-06,3.755626782246206e-06,6.488072554115357e-06,1.509034608702109e-05,1.2375384703489089e-05,9.79819945333323e-06,1.1850855786358731e-05,4.454718840539347e-05,5.531331871111433e-06,1.2867742479253744e-05,1.566802726126563e-05,4.747336053156914e-06
2.0561538461538422,8.379173991812649e-06,3.841649518676604e-06,5.708272940552206e-06,2.2763154557973545e-05,1.2195646135163922e-05,9.436624208566021e-06,7.351796745780348e-06,6.948119306026494e-05,5.827166175483474e-06,1.2731364958303477e-05,1.55869001711532e-05,4.627743468669602e-06
2.1184615384615344,7.34690114943722e-06,3.7416393486940553e-06,6.889511963710978e-06,2.4775247365245907e-05,1.1050774400445107e-05,9.987729232818764e-06,8.770122848034135e-06,4.805453822645707e-05,5.6914880320372655e-06,1.1631253015546386e-05,1.6340123656040837e-05,5.8075837344517826e-06
2.1807692307692266,1.023740495066742e-05,3.667505934383068e-06,7.36228731810229e-06,1.811233182849037e-05,1.2136898858727818e-05,1.0367488169057045e-05,7.510554181540859e-06,3.437202770323703e-05,5.408941793897763e-06,1.1658528521252265e-05,1.6063172393643298e-05,7.730856294093277e-06
2.2430769230769187,1.747450472251444e-05,3.742338730224522e-06,7.5693014020809335e-06,1.8774636933234965e-05,1.9626471894203707e-05,9.503064559860755e-06,5.3893593940775496e-06,2.12874800588736e-05,5.951654317944606e-06,1.140395718171779e-05,1.66555403493381e-05,1.0589888393752744e-05
2.305384615384611,1.9248811089293364e-05,3.788497276483819e-06,6.5503166531755145e-06,2.1530162032708708e-05,2.5971872619123816e-05,9.54642557170852e-06,6.513249947441106e-06,1.123890548318703e-05,6.621652532838122e-06,1.1769029291031074e-05,1.5271483476671695e-05,9.699588034806083e-06
2.367692307692303,1.547010505665488e-05,3.782202923237795e-06,6.155870905881026e-06,1.755912877143828e-05,1.8318646588729356e-05,1.0079346922964305e-05,6.720963390449697e-06,7.6014724868400664e-06,5.39145748869411e-06,1.1898413104442322e-05,1.5630960553399595e-05,8.13159635531709e-06
2.4299999999999953,1.086614024951397e-05,3.752129931437291e-06,6.234200542583797e-06,6.471287645837265e-06,1.1457109461569341e-05,9.700287390520165e-06,6.586683981169017e-06,9.303743548845962e-06,5.294244828964641e-06,1.115777833623118e-05,1.57400625572753e-05,1.0287759754371944e-05
2.4923076923076875,9.829671182851978e-06,3.7577249069424092e-06,6.946860429716632e-06,5.654421327487095e-06,1.224530152370562e-05,9.968146805997927e-06,6.7664225210724755e-06,1.3880432863544456e-05,5.964942411651464e-06,1.1949467248465832e-05,1.5237214225294337e-05,1.3847562395123228e-05
2.5546153846153796,1.3639848891955352e-05,3.7437374714954786e-06,8.077744677118896e-06,5.649525713143551e-06,1.3040487265196059e-05,1.0287759759108894e-05,6.526537999936484e-06,2.2265201778282062e-05,5.924378825739041e-06,1.1877431938955852e-05,1.5865250151136934e-05,1.831584902447503e-05
2.616923076923072,1.6393975204920253e-05,3.7283512919354206e-06,6.355191876631731e-06,6.12020295254941e-06,1.2805498309376162e-05,9.966748092911834e-06,6.628646279456992e-06,2.77594668884736e-05,5.530632487923034e-06,1.144452078563063e-05,1.5881335717438105e-05,2.0261501489216017e-05
2.679230769230764,1.5878538230159243e-05,3.743038106070647e-06,6.620953198203476e-06,9.828971820506165e-06,1.239636578773684e-05,1.006046393001725e-05,8.001513189033934e-06,2.3102349873245962e-05,5.632740785443957e-06,1.114658837858921e-05,1.660378678399373e-05,1.8210943277334006e-05
2.741538461538456,1.190470740842405e-05,3.726952541190561e-06,7.28815393339725e-06,9.03028917065285e-06,1.310762697741552e-05,9.343607774070506e-06,1.39419775708897e-05,1.4942778712641787e-05,5.222209517086185e-06,1.1400460330908875e-05,1.6187660556236475e-05,1.231663744031645e-05
2.8038461538461483,7.952557147679803e-06,3.751430562222898e-06,6.376872427911925e-06,5.187240921837126e-06,1.4116820538134788e-05,9.206530877037266e-06,1.1919394205032556e-05,1.053044176349734e-05,5.722260386894126e-06,1.1307443874149688e-05,1.6267388986553517e-05,8.733056150826238e-06
2.8661538461538405,7.446911326998891e-06,3.7479337104665926e-06,6.269169150622626e-06,4.80048829724448e-06,1.2949568927211885e-05,9.651331384219474e-06,6.431423419428484e-06,8.028089315340973e-06,6.079639386532184e-06,1.1413748411589117e-05,1.5481295013586303e-05,6.98882279811149e-06
2.9284615384615327,7.172757563959446e-06,3.7052720112266496e-06,6.516047401087614e-06,6.899303187897962e-06,1.1397662831313937e-05,9.902405862997435e-06,7.083237991404682e-06,9.516352573986826e-06,5.3278146552315775e-06,1.1914498629058319e-05,1.535610743440922e-05,5.511749467738506e-06
2.990769230769225,6.774814995225142e-06,3.6842908590036435e-06,6.385264880748309e-06,1.818716458833099e-05,1.1765532421984896e-05,1.0296152187549978e-05,6.475483864439487e-06,3.234384943150796e-05,5.864232870322894e-06,1.1106024767097248e-05,1.7094046471536708e-05,5.268368045581914e-06
3.053076923076917,6.981129677778123e-06,3.7423387349614737e-06,6.211121295270535e-06,2.546203042257389e-05,1.2660728391722386e-05,9.908700212927593e-06,6.727257711010755e-06,6.320433104581488e-05,5.9369675540210665e-06,1.1134698999152685e-05,1.6168777534157168e-05,4.8522417976926135e-06
3.115384615384609,6.8636352096973495e-06,3.838152674499422e-06,5.803387508507285e-06,1.530155643886625e-05,1.3264985683984302e-05,9.533836918033482e-06,6.589481454237026e-06,5.5281846718931624e-05,5.634139534057189e-06,1.1521451620903159e-05,1.5147694628817969e-05,5.386561887850879e-06
3.1776923076923014,6.949657960338603e-06,3.7884972660625257e-06,6.84545153670039e-06,8.61556163821812e-06,1.3256593204620988e-05,9.447114768098194e-06,6.6279469095320565e-06,2.195048441606673e-05,5.455100338025431e-06,1.123470920466237e-05,1.6398870834895735e-05,5.451603466137082e-06
3.2399999999999936,6.794397424651303e-06,3.7577249069424092e-06,6.526537977909659e-06,7.737849977000148e-06,1.2318036185140121e-05,9.819879941138272e-06,6.757330691916271e-06,7.828068968270448e-06,5.722260384051954e-06,1.2045980553902307e-05,1.6795414675859396e-05,5.292146694557686e-06
3.3023076923076857,7.485376802189118e-06,3.815772778163288e-06,5.739744678360618e-06,8.151178774321958e-06,1.2609674249119962e-05,9.70308486690404e-06,6.802789847408045e-06,8.848452489473857e-06,5.834859247499935e-06,1.2015208203308702e-05,1.5658236027604743e-05,5.557907996471082e-06
3.364615384615378,8.026690587570328e-06,3.842348915365316e-06,6.325818276546139e-06,7.965845242807745e-06,1.1859248233273927e-05,9.74434786561081e-06,8.181251732490107e-06,8.677106391511795e-06,5.404745563216314e-06,1.1303947016945889e-05,1.5632359250143206e-05,5.8474479338599394e-06
3.42692307692307,9.90590267685813e-06,3.864029442487056e-06,6.2782609707786225e-06,9.098128274350377e-06,1.122072170171388e-05,9.962551891599484e-06,1.0080046301889448e-05,9.324025303669713e-06,5.833460498413009e-06,1.1497672987559327e-05,1.6833880115285636e-05,5.096322586931971e-06
3.4892307692307623,1.1765532406352956e-05,3.797589103745243e-06,6.378970518028382e-06,1.1266180976339987e-05,1.2158579339901128e-05,1.006186264452443e-05,9.618460903008478e-06,1.1245899109013636e-05,6.772017531394189e-06,1.1389969769481922e-05,1.654364080915608e-05,5.249485021607825e-06
3.5515384615384544,1.0316434006559423e-05,3.701775161365125e-06,6.6992828116951845e-06,1.3973449317698321e-05,1.1561315833101087e-05,1.0440222791648542e-05,8.259581416088697e-06,4.337853823391432e-05,6.599272678187163e-06,1.1769728654087431e-05,1.5430940190933977e-05,5.139683641885995e-06
3.6138461538461466,7.891012459045517e-06,3.864029430170982e-06,6.147478438596939e-06,1.7731873525406173e-05,1.1913799243738291e-05,9.582792926228951e-06,9.666018171590924e-06,6.926928354313114e-05,6.704877810648213e-06,1.2311741792814246e-05,1.6124017681325615e-05,3.9591439810730355e-06
3.6761538461538388,7.754634937384708e-06,3.930469752807161e-06,6.39155922357304e-06,1.3190852197434803e-05,1.2833473207981191e-05,1.0005912892789108e-05,1.0745848295575417e-05,6.10635537950562e-05,5.522240044086857e-06,1.167950969905481e-05,1.661078051900707e-05,5.035477237195588e-06
3.738461538461531,1.2882429204807977e-05,3.8031840811451425e-06,7.737150626496714e-06,1.7022011198501257e-05,2.2023918497401003e-05,1.0241601174717137e-05,8.540728902772798e-06,4.155947210051636e-05,5.833460517597662e-06,1.1131901568480391e-05,1.4765837632306026e-05,6.673406076629362e-06
3.800769230769223,1.914390524149212e-05,3.793392873300642e-06,6.769919382539532e-06,1.8281579870205177e-05,2.4409475845033057e-05,9.597479705784432e-06,6.65871925917827e-06,1.7950776967031365e-05,6.887413884489509e-06,1.1807494760063264e-05,1.524141042329082e-05,5.716665411625854e-06
3.8630769230769153,2.3931105496899362e-05,3.792693500296688e-06,6.259377950830943e-06,8.085437818294849e-06,1.574425878795675e-05,1.0276569769018807e-05,8.154675612341104e-06,9.300946103252273e-06,5.667709395377566e-06,1.1744551272367214e-05,1.6732471201189963e-05,5.422929236450121e-06
3.9253846153846075,1.816548407684119e-05,3.7829023019260908e-06,6.522341764044389e-06,5.254380623161599e-06,1.2562116940747122e-05,1.018844892305045e-05,7.587485070577789e-06,6.867831444642055e-06,5.348795822849676e-06,1.1586493227137378e-05,1.6034498181483058e-05,8.492472209316778e-06
3.9876923076922997,8.827471309302836e-06,3.81297530888484e-06,6.044670792941058e-06,5.280956736442022e-06,1.245371433237589e-05,9.670214394456404e-06,7.3538948988982614e-06,7.4804811634502736e-06,5.846748540013399e-06,1.1928486060478841e-05,1.6038694392743007e-05,8.447013042930014e-06
4.049999999999992,1.1557119572576842e-05,3.796889751583876e-06,6.188741376670729e-06,9.365288229664278e-06,1.1516556034033935e-05,9.803794395679687e-06,7.720365732192628e-06,1.1320032535167001e-05,5.772615138965875e-06,1.1669019112995708e-05,1.6180666848697455e-05,1.1161275159565775e-05
4.1123076923076844,1.8138907890611714e-05,3.8094784419702895e-06,6.4062460216026315e-06,1.3025800413638914e-05,1.0861943982357995e-05,1.0141591022735005e-05,6.1740545994837245e-06,2.718877953332329e-05,5.775412641402985e-06,1.1551524640177983e-05,1.5586900175416456e-05,2.301632717139531e-05
4.174615384615376,2.117488105023805e-05,3.840950172199579e-06,6.059357603049875e-06,9.719170414020558e-06,1.085355154823257e-05,9.794702593524108e-06,6.469888892250234e-06,2.850779482888773e-05,5.74673839253137e-06,1.1639645488751664e-05,1.5714185834999247e-05,2.163087153945753e-05
4.236923076923069,1.8323542119228856e-05,3.8115765458239064e-06,6.416037242000054e-06,8.642137828474006e-06,1.2502670337966037e-05,9.698888662986367e-06,8.160969981692763e-06,1.4483990748933213e-05,5.345298958303601e-06,1.1564113323695816e-05,1.5297360200131985e-05,1.1913799189973891e-05
4.2992307692307605,1.0729762711273831e-05,3.7780066975301453e-06,6.690890357911409e-06,6.757330727680255e-06,1.4846265357941017e-05,9.945766919135698e-06,9.651331368587534e-06,1.013529668512092e-05,6.2048269441561384e-06,1.1913799228106352e-05,1.544003207811784e-05,7.938569686416485e-06
4.361538461538453,6.688792248610298e-06,3.8003865910241076e-06,5.850245412138596e-06,4.63333842475322e-06,1.4300055967690166e-05,1.057660029388785e-05,7.697286459299828e-06,1.5400167889367822e-05,5.886612764527399e-06,1.1292057700984515e-05,1.6026805018517127e-05,5.124297462089089e-06
4.423846153846145,7.030085716763779e-06,3.794791616466379e-06,5.61735458717294e-06,1.042693473560045e-05,1.2325729242945726e-05,1.0105923047850259e-05,6.4335215443615345e-06,2.973798996208643e-05,5.496363275151831e-06,1.1075252461267837e-05,1.6165280660374036e-05,4.934767690656372e-06
4.4861538461538375,6.593677688471189e-06,3.7101676260438883e-06,6.5153480169518234e-06,2.0748264277633172e-05,1.3824483072729284e-05,9.219818923611457e-06,6.670608598587554e-06,4.8264349873979503e-05,5.314526597999248e-06,1.1643841760407744e-05,1.591840240777742e-05,5.122898705659887e-06
4.548461538461529,6.799293012704766e-06,3.7682154896856447e-06,6.5615065587110165e-06,2.985618365348349e-05,1.5479196863310564e-05,9.78421203446563e-06,6.546819776076518e-06,5.9624945924715195e-05,5.120101216486243e-06,1.132283006318365e-05,1.5552630929486593e-05,6.434220894391274e-06
4.610769230769222,7.181150048770254e-06,3.8038834569912677e-06,5.962844279376138e-06,2.2313458424605413e-05,1.3234213257125779e-05,1.0549324820393242e-05,6.782508081689305e-06,3.986489407381555e-05,5.829963642393447e-06,1.1482986182661156e-05,1.6026805067781424e-05,6.312530199892308e-06
4.673076923076914,7.059459347402708e-06,3.7374431305655283e-06,5.9194832492911095e-06,1.1397662835103498e-05,1.1529844081555515e-05,1.0039482712424311e-05,6.624450048538696e-06,1.4399366763010828e-05,5.798491918559042e-06,1.149627423160382e-05,1.6196053026362732e-05,4.894903496458862e-06
4.735384615384606,6.516746784276013e-06,3.7332468925418046e-06,6.034180219434878e-06,8.5393301558175e-06,1.1670417829871364e-05,9.69119553578442e-06,6.737748283569545e-06,8.076345957164221e-06,5.454400953652794e-06,1.0922089967616937e-05,1.6262493340946092e-05,4.960644447275323e-06
4.797692307692298,6.466391993834956e-06,3.7297500313115963e-06,6.25937794917301e-06,7.030785116294661e-06,1.3216029592418483e-05,1.0075150699625131e-05,7.188143769099042e-06,7.576295108198868e-06,5.494265153297798e-06,1.167181658487948e-05,1.6096742189593746e-05,5.222908878484608e-06
4.8599999999999905,6.763625028346117e-06,3.73464563097059e-06,6.071246925169286e-06,6.2929478175988155e-06,1.3785318305300128e-05,9.6387426656482e-06,7.2133211546088205e-06,1.0121309247305513e-05,5.713168537605876e-06,1.2061366721619985e-05,1.5805803475169947e-05,5.0116985912988335e-06
4.922307692307682,6.64333308269723e-06,3.7395412325243646e-06,6.198532581673059e-06,5.550914281826636e-06,1.421892886431427e-05,9.825474960223346e-06,1.1350804941182939e-05,9.970244938273255e-06,5.5082525967975474e-06,1.1464802584744878e-05,1.6128213942323556e-05,5.1389842653293275e-06
4.984615384615375,7.007006437239246e-06,3.712265734634457e-06,6.123000437222951e-06,7.68959333896646e-06,1.5466608219819968e-05,1.0121309257253112e-05,1.408115260280359e-05,7.088133598405951e-06,6.033480860404931e-06,1.3199244745010218e-05,1.6270186443279044e-05,4.860634259055511e-06
5.046923076923067,7.645532931614223e-06,3.717860713929137e-06,6.428625954176444e-06,8.138590035144943e-06,1.4768635119821738e-05,1.0059065129060703e-05,1.1683705924288764e-05,4.1442676987439124e-05,5.641133250596416e-06,1.3234912674183381e-05,1.5220429327911233e-05,4.822168816313403e-06
5.109230769230759,7.358790472267174e-06,3.815073403264553e-06,6.662216157593548e-06,1.3118816942162919e-05,1.2806897103937823e-05,1.0114315516792279e-05,9.751341538806931e-06,6.238816411420581e-05,4.854339924757293e-06,1.2092838433138317e-05,1.5161682089844437e-05,4.949454496501934e-06
5.171538461538451,6.995816472491849e-06,3.7451362175033865e-06,6.19783324443309e-06,1.6591198134108252e-05,1.2306146874626241e-05,9.729661010027257e-06,7.771419875742443e-06,4.328971797444107e-05,5.913888238258854e-06,1.174944686492078e-05,1.6410060773826747e-05,5.685193678554394e-06
5.233846153846144,8.840060028584654e-06,3.666806571800407e-06,6.232102436598552e-06,1.8797716213706885e-05,1.4021705997180334e-05,1.0142290378449085e-05,6.956651684693801e-06,3.3635589197444915e-05,5.801988751841236e-06,1.1121410947604697e-05,1.597924771582863e-05,9.024694189700237e-06
5.296153846153835,1.4117519932218177e-05,3.729050654518081e-06,6.688092890527741e-06,1.9891533749453554e-05,2.6208959618164347e-05,9.992624816372124e-06,7.3063375973940005e-06,1.996916414318169e-05,5.584484137936367e-06,1.1822880897227605e-05,1.6075761040686607e-05,1.0712278427386461e-05
5.358461538461528,1.762766714866378e-05,3.7038732585870095e-06,6.610462629434248e-06,1.5529551649251517e-05,3.704642559749042e-05,1.0118511744868404e-05,6.753833845370612e-06,1.1211629955691175e-05,5.914587636368651e-06,1.1788611702693667e-05,1.5821189685046495e-05,9.005111787748394e-06
5.42076923076922,1.863546193897984e-05,3.7234556828025235e-06,5.862134752732118e-06,1.0624157600839606e-05,2.597746751102174e-05,1.0283563514690287e-05,7.081839242791451e-06,9.249192555908319e-06,6.17895018919512e-06,1.1675313469320751e-05,1.4799407425887997e-05,8.602972970805922e-06
5.483076923076912,1.486374963377557e-05,3.7647186331923877e-06,5.92787568981142e-06,7.011202665315371e-06,1.4895221387926465e-05,9.945766908714404e-06,6.8139798346559624e-06,9.39955749241032e-06,5.803387517507493e-06,1.1592088228458881e-05,1.7043691682990434e-05,9.294651715189654e-06
5.545384615384604,8.591783023348399e-06,3.729750028469425e-06,6.502059976535672e-06,6.3691793134997475e-06,1.4140599189715885e-05,9.545726197520328e-06,6.164263403955298e-06,1.2619465421437326e-05,5.734849075859453e-06,1.1465501930748209e-05,1.6534549003921484e-05,1.0713677236632671e-05
5.607692307692297,1.1822880909543679e-05,3.74233872359279e-06,6.274064769466273e-06,5.138984261539766e-06,1.1087841099074088e-05,9.783512644882346e-06,7.0035095930620624e-06,1.8369700693909863e-05,5.5949747088372226e-06,1.1539635327532475e-05,1.5302255848344735e-05,1.2480989874319447e-05
5.669999999999988,2.0465718033098787e-05,3.80038659860323e-06,6.03697770884537e-06,5.211718937421968e-06,1.1552923389028062e-05,1.0126904230152908e-05,6.427227197510395e-06,2.344294405034475e-05,5.6264464471193305e-06,1.1813089717331119e-05,1.6189059315744696e-05,2.0023015654876038e-05
5.732307692307681,2.339258916113825e-05,3.7843010394074855e-06,5.94745810952683e-06,6.962246643145894e-06,1.2439726912797747e-05,9.715673580264668e-06,5.285152984650191e-06,2.483679209035472e-05,5.7453396718661525e-06,1.1677411592359022e-05,1.565124234990852e-05,2.501303371336879e-05
5.794615384615373,2.0720988753690033e-05,3.759123652950317e-06,6.05166451776995e-06,6.354492515707003e-06,1.3034892315033631e-05,1.0209430098484517e-05,8.779214693059128e-06,1.8315149665918778e-05,5.413138048027122e-06,1.1427036503164345e-05,1.5284771546693794e-05,1.5996032670055152e-05
5.856923076923065,1.4944177378595213e-05,3.7430381070180374e-06,6.579690254682191e-06,6.240494901514163e-06,1.5024605167468507e-05,1.0229711883387911e-05,1.2558620088280274e-05,8.916990917621585e-06,6.099921174751443e-06,1.2063464847500427e-05,1.538757919282337e-05,8.006408795798356e-06
5.919230769230757,8.363088422195612e-06,3.706670768603241e-06,5.906195166952936e-06,7.5434246497252385e-06,1.494557617173579e-05,9.429630484921366e-06,9.052669045672702e-06,8.775717795591238e-06,6.106914871632322e-06,1.148088808164971e-05,1.5716283919194514e-05,5.85793851115568e-06
5.98153846153845,6.6929884816602225e-06,3.6821927437813427e-06,6.025088384594331e-06,9.203034026228351e-06,1.3558022441865584e-05,1.0316433976953477e-05,6.654523032996925e-06,2.898686454670951e-05,5.608262754464022e-06,1.1145189594211994e-05,1.6183464307080916e-05,4.556407532400423e-06
6.043846153846141,7.127298378861724e-06,3.643727287302075e-06,6.760128197432399e-06,1.3753846559438898e-05,1.161027185858643e-05,9.786310138319248e-06,8.67011267757789e-06,4.853290863569744e-05,5.801988749946455e-06,1.1463403773840735e-05,1.5854060147546534e-05,4.248683920830369e-06
6.106153846153834,7.599374356696368e-06,3.6241448735078545e-06,7.311932571004339e-06,2.0605592423332077e-05,1.083886473528158e-05,9.150581161539625e-06,8.761031030720309e-06,5.678899323460958e-05,6.05865820565062e-06,1.1250794763621267e-05,1.574425877966708e-05,4.524236413061544e-06
6.168461538461526,7.221014192045535e-06,3.6654078106342543e-06,6.855942112338198e-06,2.1217542776241772e-05,1.4864449038517099e-05,9.989827360120292e-06,6.846850327709338e-06,4.8304214050413445e-05,5.934869409666513e-06,1.148298618408224e-05,1.6326136174882323e-05,5.063452088667949e-06
6.230769230769218,6.844052796376824e-06,3.6849902206389135e-06,5.88171714284158e-06,1.2827178881498943e-05,1.5053978807107644e-05,9.975140512826404e-06,6.766422553046899e-06,1.983138775874712e-05,5.674703106232452e-06,1.1597683166068388e-05,1.5927494239065254e-05,5.142481099322064e-06
6.29307692307691,7.249688477865372e-06,3.659812842708258e-06,6.372676174729955e-06,6.529335482478397e-06,1.269639635121204e-05,1.0080046280336319e-05,8.507858415640613e-06,6.597873938337292e-06,5.426426109285861e-06,1.1740355054238686e-05,1.5626764386430145e-05,5.185142790035494e-06
6.355384615384603,7.015398899549533e-06,3.733246900120927e-06,5.7474377477717555e-06,5.792896924342964e-06,1.272996617890006e-05,9.863241033751062e-06,7.444113839956875e-06,8.184049254822412e-06,5.653022568215723e-06,1.2142493857443999e-05,1.636040539096939e-05,5.240393178003918e-06
6.4176923076922945,7.176953765034947e-06,3.8094784334437768e-06,6.009702210481767e-06,5.2438900475237915e-06,1.2489382262259597e-05,9.740151600112768e-06,6.5440222949556905e-06,1.0633249424548315e-05,5.80478624504129e-06,1.1690699638696363e-05,1.5299458281248234e-05,5.319422182973691e-06
6.479999999999987,7.4294270021368906e-06,3.7304494118946727e-06,6.863635233618955e-06,5.866331007098324e-06,1.2090740353443153e-05,9.644337639732233e-06,9.800297581818995e-06,8.326721089465157e-06,5.453002229198016e-06,1.1147287718434503e-05,1.5424645916795043e-05,4.788598946940207e-06
6.542307692307679,7.823872739957476e-06,3.702474529632127e-06,5.783805110345005e-06,6.670608621324921e-06,1.2315938099760616e-05,1.0154879098915141e-05,1.573306885163106e-05,6.50555682900252e-06,5.3872612802763346e-06,1.2072556679735651e-05,1.622402794083655e-05,5.085132623605659e-06
6.6046153846153715,8.366585303321017e-06,3.7696142129561848e-06,6.227906204496018e-06,7.155972628680729e-06,1.3271979379207247e-05,1.0180056496267297e-05,1.634571857257091e-05,1.803540093140062e-05,5.516645047265456e-06,1.334121715975319e-05,1.6403067056576978e-05,5.209620823620753e-06
6.666923076923063,7.749739339383647e-06,3.703873254797448e-06,6.546819745523181e-06,6.663614840836848e-06,1.1362694232275317e-05,9.988428602980548e-06,1.0531840487241577e-05,5.2236082453305244e-05,5.399849942241038e-06,1.2134800702767733e-05,1.6298161261119047e-05,4.5585056499912e-06
6.729230769230756,6.981129692699521e-06,3.6926833113663332e-06,5.452302842220054e-06,1.0458406427460431e-05,1.1971847070194979e-05,9.960453730191905e-06,8.178454291870215e-06,6.098102778816876e-05,5.248785635340407e-06,1.1312339473098139e-05,1.6233819070284503e-05,5.613158377807774e-06
6.7915384615384475,7.866534435644704e-06,3.794092247251986e-06,6.146779088093505e-06,1.3698596142811919e-05,1.790321958476208e-05,9.603074701184748e-06,9.031687941292906e-06,5.241442218112032e-05,5.29704230108526e-06,1.2083746626008936e-05,1.7109432599700845e-05,7.657422245917663e-06
6.85384615384614,1.6557628273972114e-05,3.773810465190763e-06,7.876325649647243e-06,9.575799177715301e-06,3.246134385814041e-05,9.405851840445696e-06,7.435721377409739e-06,3.816332233128605e-05,6.7992930235997544e-06,1.1797004155293204e-05,1.5726774471147564e-05,7.563706420654625e-06
6.916153846153832,2.172039116246083e-05,3.6793952498707464e-06,6.592278959279459e-06,8.301543719113624e-06,3.710797036428441e-05,1.0275870422068085e-05,5.427824846056714e-06,1.351256319731912e-05,7.251786596403538e-06,1.1797004178977962e-05,1.5064469357639609e-05,6.740545781743398e-06
6.9784615384615245,1.9650250483020196e-05,3.7045726448544275e-06,5.455100328788376e-06,7.674906581200957e-06,2.242325979130063e-05,1.0601078343105048e-05,7.716868861962211e-06,7.481180522717068e-06,5.376071319792193e-06,1.1986533945200032e-05,1.5224625535618467e-05,6.205526329476167e-06
7.040769230769216,1.4036392764656587e-05,3.752129935226852e-06,6.346799416689919e-06,6.572696546432629e-06,1.277472596067734e-05,9.939472569442387e-06,7.202830541785943e-06,8.519747744628603e-06,5.007502377670411e-06,1.2096335322079691e-05,1.5749154388563133e-05,6.432122794800913e-06
7.103076923076909,8.802993325692418e-06,3.6863889723311634e-06,6.08243688139017e-06,8.286856889346458e-06,1.401401286879415e-05,1.0032489006543225e-05,6.686694141440815e-06,1.0741652083131233e-05,6.0111009643056455e-06,1.1532641629704206e-05,1.5472902495616837e-05,8.11621015159858e-06
7.165384615384601,1.964255743303056e-05,3.6779965076524e-06,6.456600808727823e-06,1.135989675304927e-05,1.7403168773929185e-05,1.0054169559007657e-05,7.480481193293069e-06,1.763745838871955e-05,6.316726434837013e-06,1.1443122002674499e-05,1.5581305153962905e-05,1.434621441352609e-05
7.227692307692293,2.8964484643504797e-05,3.663309696359344e-06,6.483176950666803e-06,1.0641641867437102e-05,1.5232318607161232e-05,9.782113910479968e-06,6.208323821491982e-06,2.4517878475194266e-05,5.560705482565709e-06,1.1984435832346208e-05,1.6289069462516183e-05,2.642366664034057e-05
7.289999999999985,2.217428344029789e-05,3.650021632968977e-06,6.0852343790903285e-06,7.16856131054063e-06,1.2376783449496997e-05,9.914994536330823e-06,7.463696255409029e-06,2.1628074032757166e-05,5.080237031525788e-06,1.1941074798945314e-05,1.729756365165258e-05,2.40555936438606e-05
7.3523076923076776,1.328946361596195e-05,3.6171511633635117e-06,6.473385716058526e-06,5.885214023019595e-06,1.7385684522489934e-05,1.00345871340816e-05,1.0969647258699903e-05,1.4139200428076037e-05,5.5124488130312935e-06,1.1793507300694728e-05,1.5658236057684387e-05,1.0249294263549776e-05
7.41461538461537,9.475089654860843e-06,3.691284589043183e-06,6.8643345630429545e-06,5.700579864272489e-06,1.8392080540744853e-05,1.0025495321267878e-05,9.459004109875953e-06,8.643536532559892e-06,6.0348795725436355e-06,1.1174563227693095e-05,1.4749752052267695e-05,4.815175117774592e-06
7.476923076923062,7.202830557891578e-06,3.7843010469866084e-06,6.05096514050274e-06,6.245390508278584e-06,3.064227758926563e-05,9.614964038936099e-06,6.1768521031050716e-06,1.2574006208865286e-05,5.636937006414655e-06,1.1099730458852264e-05,1.5823287823006162e-05,4.872523617649449e-06
7.5392307692307545,7.114010328497973e-06,3.7066707667084605e-06,5.897103336612493e-06,1.3108326336445468e-05,3.42139695848213e-05,9.556216772447594e-06,6.579690268893046e-06,2.6415973544165657e-05,5.601269072504541e-06,1.1591388869665782e-05,1.6005823868188904e-05,5.341802126205645e-06
7.601538461538446,7.821075255994477e-06,3.7108669971530618e-06,6.648928053939093e-06,2.1812008879370143e-05,1.770389871111888e-05,9.926883852529044e-06,6.378970539344664e-06,4.456047658720763e-05,5.98942044547357e-06,1.1599081940734853e-05,1.648139668901649e-05,5.140383026258632e-06
7.663846153846139,6.9685409836021485e-06,3.787797903479865e-06,5.997812866809227e-06,2.2673634976418574e-05,1.4577706600012636e-05,9.878627215205901e-06,6.517446147569217e-06,5.0785585378558075e-05,5.885214014493083e-06,1.1731962581270258e-05,1.603309934168351e-05,5.258576855974676e-06
7.726153846153831,6.6433330853025534e-06,3.789196645698212e-06,5.950255577384193e-06,1.9819498488971023e-05,1.448259201618877e-05,9.517051990333888e-06,6.605567000169306e-06,3.163818317114912e-05,6.278960350177461e-06,1.169419649897918e-05,1.6293265723277273e-05,5.701279230171015e-06
7.788461538461523,7.3545942529544085e-06,3.7633198833949184e-06,6.260077332598258e-06,1.3490882737462092e-05,1.236139725714717e-05,9.846456112446352e-06,6.427227200352566e-06,1.0977340333795383e-05,5.92437883071284e-06,1.1617265578441523e-05,1.5691805933926162e-05,5.796393805231522e-06
7.850769230769215,7.08323797790437e-06,3.775908574728722e-06,6.438417164626268e-06,5.372574440087874e-06,1.1120711627417753e-05,1.0349304436848191e-05,6.775514367044859e-06,6.48597441710308e-06,5.36278325213857e-06,1.135779862598459e-05,1.6126115794179442e-05,5.426426082995779e-06
7.913076923076908,7.009803930912995e-06,3.838152668815079e-06,6.74264388891288e-06,5.386561888087726e-06,1.1925688570594653e-05,9.845756731626427e-06,6.667811108466519e-06,9.04287789277684e-06,5.869128464534393e-06,1.1555021489092117e-05,1.5754749362884013e-05,5.3599857650965536e-06
7.975384615384599,7.137089592153719e-06,3.8325576923625705e-06,6.25168485655081e-06,6.512550557857821e-06,1.3640548281538638e-05,9.837364281869061e-06,6.7629257053170026e-06,9.13659370785543e-06,5.82366928062091e-06,1.1977442094727545e-05,1.4966557310221637e-05,5.213117697167036e-06
8.037692307692291,7.08603542847186e-06,3.793392873300642e-06,5.790099454590821e-06,6.350995665371784e-06,1.3178962872236373e-05,9.616362787075635e-06,7.3629867271070754e-06,7.556712691088781e-06,5.3585870188517975e-06,1.1931283560784323e-05,1.591910177651812e-05,4.936166444717097e-06
8.099999999999984,7.753935534537959e-06,3.7801048089628847e-06,6.217415632174076e-06,7.062956176895341e-06,1.2254393308808175e-05,9.317731015083079e-06,9.851351704052528e-06,9.000216185957774e-06,5.492866422684984e-06,1.2061366718777815e-05,1.6564622025327936e-05,4.25218079058709e-06
8.162307692307676,8.112713309079329e-06,3.838152663130738e-06,6.638437491801597e-06,6.076142526249365e-06,1.2575405007216508e-05,1.0149983501624622e-05,1.0503865634348131e-05,4.6534803210818154e-05,5.594275342938696e-06,1.1078049915861735e-05,1.6232420369040785e-05,4.257076382903809e-06
8.224615384615369,7.308435704326636e-06,3.937463462951503e-06,6.401350432838626e-06,9.98423232824545e-06,1.2618766078276167e-05,1.0268876720687104e-05,7.877025002519152e-06,6.993158861519077e-05,5.664212542200176e-06,1.1501169903975021e-05,1.586385138902339e-05,5.173253480232157e-06
8.28692307692306,6.946860465954311e-06,3.798288467275294e-06,6.3153276895396475e-06,1.3006917419033925e-05,1.1757139968911664e-05,9.935276355577117e-06,8.021794979147975e-06,5.345578702223482e-05,5.710371078275026e-06,1.1876732583952313e-05,1.5688309067248458e-05,5.14527860602243e-06
8.349230769230752,9.048472831570583e-06,3.721357570422394e-06,6.117405467165327e-06,1.4414752951807941e-05,1.4089545017270666e-05,9.74015158211235e-06,7.94136722367019e-06,4.765939311800101e-05,5.543221189914978e-06,1.1798402900353721e-05,1.623032224173926e-05,4.525635163569556e-06
8.411538461538445,1.584636707860909e-05,3.8255639869551794e-06,7.3189262719116264e-06,1.3061468400602887e-05,2.5522875787468517e-05,1.0309440241940138e-05,5.7439409152001035e-06,3.481472991708756e-05,6.939167368121464e-06,1.2220823492488838e-05,1.6495384150990353e-05,5.162762904120655e-06
8.473846153846138,1.6963263880143133e-05,3.825563984113008e-06,6.4510058393807416e-06,1.869770606883018e-05,3.5534383629235816e-05,9.711477327556394e-06,5.010299861396561e-06,1.6316344949984796e-05,7.267172762226437e-06,1.1699791483247661e-05,1.589182625920671e-05,5.562104220520799e-06
8.536153846153828,1.5575010782716465e-05,3.803883448464755e-06,5.308931628415318e-06,1.9113132949636717e-05,2.4331146170671522e-05,9.78211390147976e-06,7.377673544558169e-06,6.830764733933848e-06,4.857137410141377e-06,1.2256491437767636e-05,1.6396073328669065e-05,5.036875976571764e-06
8.598461538461521,1.3253096310705815e-05,3.815073393790651e-06,6.725858969502951e-06,7.091630421977394e-06,1.2320833668629424e-05,1.0528343657985791e-05,7.2503878695802845e-06,5.4802777230615145e-06,4.843149979905092e-06,1.2386574586287224e-05,1.6864652483405962e-05,5.54601867743069e-06
8.660769230769214,7.651827266622982e-06,3.856336341338343e-06,6.3230207937673795e-06,4.92847334498947e-06,1.4655336902080762e-05,9.324724707700701e-06,6.81188170593335e-06,6.822372280860615e-06,5.843251711941851e-06,1.1662025386982577e-05,1.498194349996614e-05,5.827865520065719e-06
8.723076923076906,1.1424238945304902e-05,3.8192696431830575e-06,6.600671406905197e-06,5.811779985028428e-06,1.5301556426787026e-05,1.0206632614047825e-05,8.151878142352114e-06,1.1214427416679958e-05,5.439714175281551e-06,1.1517954812016266e-05,1.5233017966901722e-05,8.967345690299075e-06
8.785384615384597,1.975096005111254e-05,3.784301043197047e-06,6.22370997665674e-06,8.164466835580697e-06,1.3603481574619991e-05,1.0182853963414117e-05,6.299941518506103e-06,2.1325246097347873e-05,5.4152361578019285e-06,1.1346608713817356e-05,1.6236616612275157e-05,1.6472304907940345e-05
8.84769230769229,2.5656455875378015e-05,3.847244507445188e-06,5.853042895154203e-06,1.014159099289221e-05,1.2681709529260843e-05,9.933877595358354e-06,5.831362384848641e-06,2.6510388873646207e-05,5.456499080954321e-06,1.1713778923194695e-05,1.5812097902786112e-05,2.207077647090235e-05
8.909999999999982,2.0862261915510772e-05,3.821367757457968e-06,6.48947127809644e-06,1.1483685572481287e-05,1.3901414007951492e-05,1.0248594924415025e-05,1.1298352033151105e-05,1.763745833211298e-05,5.39915059315869e-06,1.1737557568380907e-05,1.6479997981141044e-05,1.862357264149258e-05
8.972307692307675,1.0864741465847298e-05,3.7479337047822506e-06,6.6272475433966825e-06,1.4051778992059856e-05,1.6037295585154727e-05,9.126103133165013e-06,1.1266880317606365e-05,1.0261882949909781e-05,6.1041173957221416e-06,1.1487881850295405e-05,1.6359006643066702e-05,1.0606673263187833e-05
9.034615384615366,8.690394426954148e-06,3.764019254504092e-06,6.358688755151813e-06,2.2309961579954536e-05,1.6539444571606056e-05,9.6254546200214e-06,6.885315765951342e-06,8.549820707060008e-06,6.093626819373791e-06,1.148718246071212e-05,1.597645025436615e-05,6.405546651914544e-06
9.096923076923058,8.438620590804173e-06,3.78849727932599e-06,5.813178720378195e-06,1.8236120605763518e-05,1.5141400275571944e-05,1.0333918266525189e-05,7.287454579341102e-06,1.7182167242424383e-05,5.557907986523484e-06,1.1501169862052999e-05,1.5914206192254216e-05,5.883115912534246e-06
9.159230769230751,6.225108726454209e-06,3.7731110921868092e-06,6.5461203966776795e-06,1.7589201678210506e-05,1.4137801695568442e-05,9.803095057492328e-06,7.300043259306222e-06,2.3850677679130664e-05,5.826466766004993e-06,1.1651534825792471e-05,1.5654739232218163e-05,5.038274745790735e-06
9.221538461538444,6.495765611920963e-06,3.826962730120916e-06,6.657320510801886e-06,2.699155663042537e-05,1.3592991039719967e-05,9.569504836548504e-06,6.320922685887353e-06,2.856514332165716e-05,5.198430868110411e-06,1.1473194995659241e-05,1.581419596542825e-05,4.999109904938829e-06
9.283846153846135,7.125899640906634e-06,3.848643265769169e-06,5.799191269536171e-06,2.0799318442262423e-05,1.4675618628482804e-05,9.762531450263623e-06,6.578990889967902e-06,5.3594262571484326e-05,5.328514019472171e-06,1.1749446895000422e-05,1.646041554200413e-05,5.257877487944522e-06
9.346153846153827,7.2594796812097686e-06,3.827662109756602e-06,6.037677070243793e-06,1.45833015662807e-05,3.1478026934195216e-05,1.0019900304551281e-05,6.7776124635562e-06,5.082125321678177e-05,6.1943363348859745e-06,1.1969049666049614e-05,1.5494583050923437e-05,4.947356398569506e-06
9.40846153846152,7.017497028745841e-06,3.7975891170087076e-06,6.679001039581559e-06,1.0826975401556638e-05,0.00017487023553689103,1.0217822574768813e-05,6.132092259510576e-06,1.8444533466540255e-05,5.4362172692871505e-06,1.167111722040204e-05,1.5471503799110074e-05,5.499860129750308e-06
9.470769230769212,6.4307240606353845e-06,3.815772787637191e-06,6.059357589786411e-06,7.565105157188631e-06,0.0006190259007951227,9.847854879059998e-06,6.619554439642646e-06,5.328514028472379e-06,5.565601060434725e-06,1.1521451672299084e-05,1.640446583337507e-05,5.22500699844386e-06
9.533076923076903,7.147580195028998e-06,3.857035732342714e-06,6.269169177149555e-06,5.859337244847514e-06,0.0005219733708628383,9.925485130916437e-06,6.5629053298247675e-06,8.69109383240622e-06,5.925777570089015e-06,1.1642443015110378e-05,1.5591795750206455e-05,5.508252603902975e-06
9.595384615384596,7.697985806250547e-06,3.845146398854619e-06,6.645431219235813e-06,5.588680362933474e-06,6.152583874812952e-05,1.014298975713738e-05,7.37207854844731e-06,1.2760039181358707e-05,5.583085379849232e-06,1.1220721755004584e-05,1.5495981802141993e-05,5.415935504515801e-06
9.657692307692288,8.455405487476734e-06,3.870323777732665e-06,6.039075822409738e-06,8.451209293980354e-06,1.3455214821315546e-05,9.874430966997731e-06,1.5625365551604395e-05,1.2594987409168349e-05,6.16146589749178e-06,1.1635449242438274e-05,1.686115560180686e-05,4.783703351781317e-06
9.719999999999981,8.909297810551682e-06,3.880114987471946e-06,6.067050701593265e-06,7.979832675412505e-06,1.2736260547541178e-05,9.659024457183325e-06,2.0533557092742662e-05,2.7055199478335604e-05,6.0313827406825265e-06,1.1758538719182828e-05,1.6295363804867215e-05,5.041771567941093e-06
9.782307692307672,8.360290940127394e-06,3.7570255405701875e-06,6.513949292260198e-06,5.26067498067088e-06,1.2727868054914401e-05,1.0475890750190805e-05,1.3323732879655381e-05,7.054563703382163e-05,5.280257384280655e-06,1.107595183427179e-05,1.5307151401818448e-05,5.205424585123334e-06
9.844615384615365,7.539228404832936e-06,3.869624390517856e-06,5.9985122457343705e-06,1.4608478954158955e-05,1.2567012533774384e-05,9.933877556989046e-06,8.085437819952782e-06,7.885906997794715e-05,5.846748562513919e-06,1.252714839263073e-05,1.547849750807018e-05,4.633338428305933e-06
9.906923076923057,8.826072572531985e-06,4.000406932883986e-06,6.697884074924332e-06,1.9308257719548768e-05,1.6568818187323585e-05,9.447814131628244e-06,1.0117812360495767e-05,6.454152992105833e-05,5.821571179609464e-06,1.2367691592155931e-05,1.557850768728978e-05,4.247984552089671e-06
9.96923076923075,1.2249497745150014e-05,3.85493760764651e-06,7.38676533581876e-06,1.6282075821531333e-05,3.293132175912206e-05,1.0600378929837007e-05,7.977035180080823e-06,5.289698888096458e-05,5.044569081510038e-06,1.159978131231772e-05,1.655692888415198e-05,5.460695318030654e-06
10.03153846153844,1.633872487640057e-05,3.7961903653164577e-06,6.125797933028328e-06,1.97041021946139e-05,3.743877318740374e-05,9.873731622178639e-06,5.208921446827238e-06,2.336181677714914e-05,6.692988486397174e-06,1.1763434272656544e-05,1.6461814312881035e-05,5.854441659636222e-06
10.093846153846133,2.1561633724805538e-05,3.79619037289558e-06,6.062155094118301e-06,1.6325436813957594e-05,2.767624167816507e-05,9.87443100134063e-06,8.688296362890924e-06,8.672210785221069e-06,6.070547548138923e-06,1.1847358870416731e-05,1.5512067334100267e-05,5.3236184359188124e-06
10.156153846153826,1.7601091008382735e-05,3.741639364799691e-06,6.269868527179294e-06,7.68609650544742e-06,3.849062838246671e-05,9.724066056785811e-06,7.967244018658448e-06,6.482477570320574e-06,4.852941183012642e-06,1.1716576388446735e-05,1.5877838792022202e-05,5.720162257934665e-06
10.218461538461519,9.179954752151313e-06,3.7542280485543717e-06,6.238396805476517e-06,5.078138905408499e-06,3.39349202273335e-05,9.638043305197168e-06,6.871328323398984e-06,8.672910151830138e-06,5.878919665510315e-06,1.1228414884575007e-05,1.562676432413923e-05,6.976234080487605e-06
10.28076923076921,1.4563719130696502e-05,3.739541238208706e-06,6.563604716329034e-06,9.850652318258805e-06,1.3732166031843462e-05,1.033811449886457e-05,7.229406692251435e-06,1.4428740399334099e-05,5.5586073583432e-06,1.1627056808076002e-05,1.5699499045496167e-05,1.0244398692786187e-05
10.343076923076902,2.2356120083818117e-05,3.695480810013881e-06,6.0719462844360805e-06,1.5135105960932076e-05,1.1794206659014131e-05,9.94366880746611e-06,6.037677076164983e-06,2.4745873827688076e-05,5.618753341233665e-06,1.1692797746339542e-05,1.5888329441793304e-05,1.6111428996149848e-05
10.405384615384595,2.5757864783078806e-05,3.780804181019448e-06,5.676801190190872e-06,1.9701304717519483e-05,1.2527148355208813e-05,9.720569190344956e-06,7.202830556944188e-06,3.069962628193442e-05,5.514546947911943e-06,1.164104426033911e-05,1.566453047345817e-05,1.995028099036252e-05
10.467692307692287,2.3463225817247726e-05,3.7339462627035878e-06,6.355191886342482e-06,1.4398667407770442e-05,1.4285369163976231e-05,1.0154179720226846e-05,1.0972444756636909e-05,2.017128256592097e-05,5.808283110297907e-06,1.1209531837389856e-05,1.6475102405640504e-05,1.56197706125738e-05
10.529999999999978,1.4283970409441812e-05,3.6877877145495103e-06,6.361486226561889e-06,7.146880780576718e-06,4.4803158682071854e-05,1.0023397190887333e-05,1.1424938334414491e-05,8.092431533176144e-06,5.945359975593571e-06,1.1371086724902094e-05,1.550087739351132e-05,8.695290053850613e-06
10.59230769230767,1.1821482152640783e-05,3.7661173735159537e-06,6.2712672646606885e-06,1.1198341822667619e-05,4.968337537386939e-05,9.996821051316828e-06,7.6651153397241e-06,7.890313086988954e-06,5.669807487625652e-06,1.1749446876289464e-05,1.58911269257563e-05,5.520141897126981e-06
10.654615384615363,1.0191945771490888e-05,3.7801048155946165e-06,6.1271966444564894e-06,2.1990348674923628e-05,2.0285280171113604e-05,9.911497686232451e-06,6.627946906453038e-06,2.5181582372368894e-05,5.6663106375272795e-06,1.1302548278990798e-05,1.6049884347779653e-05,4.346595970853666e-06
10.716923076923056,6.579690263208704e-06,3.7353450077641054e-06,5.911790105983528e-06,2.7162203457701633e-05,1.4788916860671483e-05,8.92678214938769e-06,6.798593643964068e-06,4.1462259326152664e-05,5.681696818508423e-06,1.1324928175326932e-05,1.56764197742613e-05,4.385760804600143e-06
10.779230769230747,7.048269387155414e-06,3.729750027522035e-06,6.273365365672135e-06,1.7104537047174517e-05,1.4302154060175098e-05,9.814285015371145e-06,5.827166171220218e-06,4.5164733861232284e-05,5.312428494856173e-06,1.17816179705225e-05,1.6338724899374788e-05,4.711668080403797e-06
10.84153846153844,7.519645993170343e-06,3.825563985060398e-06,6.495066251943626e-06,1.4308448394710164e-05,1.3693001203544479e-05,1.0144388528014284e-05,6.131392905217581e-06,5.072893609110451e-05,5.24598815800914e-06,1.1669718484578576e-05,1.5759644966569416e-05,5.043869707795541e-06
10.903846153846132,7.0356806809002135e-06,3.878016891197452e-06,6.606266376015431e-06,1.620094859144198e-05,1.282647950352119e-05,9.768825836194612e-06,7.3098344550714955e-06,3.0382810586360164e-05,5.9607461705487214e-06,1.1328425014293467e-05,1.5611378124683976e-05,5.263472467476049e-06
10.966153846153825,7.456702527737964e-06,3.7577249097845804e-06,6.131392900480629e-06,8.874329251540303e-06,1.1611670631121266e-05,1.032552581700467e-05,7.008405202668655e-06,1.0452811494587877e-05,5.604765917629114e-06,1.1458508188392595e-05,1.6024007566291707e-05,5.110310036826604e-06
11.028461538461517,7.940667849718844e-06,3.7157625826012008e-06,6.1635640252670026e-06,4.768317191879608e-06,1.1364092987993975e-05,9.729660993684774e-06,6.341903815372992e-06,9.541529987207772e-06,5.997113508963518e-06,1.1776023021544308e-05,1.6760446117795407e-05,5.1208005965956245e-06
11.090769230769208,8.595979261135275e-06,3.8143740340501608e-06,5.90619518708498e-06,5.743940902647182e-06,1.3204839672198431e-05,9.726164139559993e-06,6.022290884052002e-06,1.2003318801845352e-05,5.76352330104631e-06,1.1799102284252664e-05,1.6029602511006637e-05,5.109610636585179e-06
11.1530769230769,8.986928101014276e-06,3.821367750826236e-06,5.657218790370659e-06,5.624348328107469e-06,1.3938480707527863e-05,9.840861135520148e-06,6.311830831862153e-06,1.248518601073556e-05,5.417334250286861e-06,1.1715177653570662e-05,1.618066679967001e-05,4.704674362680332e-06
11.215384615384593,8.363787785725662e-06,3.7884972689046965e-06,6.1362884994290805e-06,6.371277426827267e-06,1.5002924682742483e-05,9.491874583744675e-06,7.136390221755088e-06,7.998715697018118e-06,5.706174828882619e-06,1.1305345744953381e-05,1.6473703608947215e-05,5.034777879349879e-06
11.277692307692286,8.103621474949326e-06,3.7052720244901137e-06,6.124399178493908e-06,7.1685613103037815e-06,1.5783423681388815e-05,9.822677482655232e-06,7.463696240487631e-06,1.4117519941455232e-05,5.4830752212353674e-06,1.1187151918553202e-05,1.5828882748536444e-05,5.1816459508321105e-06
11.339999999999977,7.89171181452275e-06,3.6542178776244327e-06,6.3461000586073625e-06,5.819473055386955e-06,1.3125111284277106e-05,1.0356997543681246e-05,6.961547250483591e-06,4.731530230633515e-05,5.36278327558648e-06,1.1950166625259347e-05,1.59820451877124e-05,4.91588464844502e-06
11.40230769230767,8.353996594460493e-06,3.826263342906107e-06,6.01389844376854e-06,7.760929277840962e-06,1.2952366426806824e-05,9.272271820037758e-06,7.108415352282312e-06,6.186783135883426e-05,5.411739295387482e-06,1.2655832802958382e-05,1.6328933665950746e-05,5.187940297209555e-06
11.464615384615362,1.0026894050696456e-05,3.861931295053485e-06,6.427227192062901e-06,1.3464306619444717e-05,1.6345019232488767e-05,9.305142332749483e-06,1.0352101960601583e-05,6.639696334336994e-05,6.1866432664222275e-06,1.1978840847604033e-05,1.5926794864877063e-05,5.291447331027636e-06
11.526923076923055,1.2112420855932745e-05,3.750031813372819e-06,6.521642385119246e-06,1.3805600084045484e-05,2.9160308702339914e-05,1.0722069661994738e-05,9.609369066036303e-06,6.157479459195277e-05,5.501958246156846e-06,1.109973048466865e-05,1.6014915719371932e-05,5.143180500037185e-06
11.589230769230745,1.7861956733374505e-05,3.687088343440337e-06,6.2859540849539526e-06,1.2583797475684833e-05,3.643727262812035e-05,1.0215724416203405e-05,6.154472185215809e-06,2.783849596047124e-05,7.011202667920695e-06,1.1875333856418516e-05,1.623381910746957e-05,4.895602877041938e-06
11.651538461538438,2.1199359150140632e-05,3.685689591748087e-06,6.549617270697657e-06,1.0633948798262812e-05,2.307577376778151e-05,1.0133198538634739e-05,7.97703519997602e-06,1.0998321522729763e-05,7.023791329885398e-06,1.2048078640466049e-05,1.5044886996899246e-05,4.90259659216008e-06
11.71384615384613,1.4993133450502683e-05,3.6654078182133768e-06,6.295745271482171e-06,1.0498270659790402e-05,1.3807698173925095e-05,9.87652907440406e-06,7.272767749337087e-06,5.526436258425823e-06,5.007502340722188e-06,1.1389270345792587e-05,1.5868747027525387e-05,4.404643836863898e-06
11.776153846153823,9.231008906359269e-06,3.6465247755283295e-06,5.782406342783967e-06,1.2648839057523749e-05,1.3843366158046896e-05,9.363889515157097e-06,6.937069279899788e-06,5.688690529837004e-06,5.650924455835593e-06,1.1696294610175073e-05,1.6165980035983314e-05,4.766918451082347e-06
11.838461538461514,1.2537638918056852e-05,3.725553798024824e-06,6.104117392169428e-06,1.253833830835068e-05,1.3326530395592802e-05,9.613565273980384e-06,7.957452806550691e-06,5.460695323951844e-06,5.576091673731298e-06,1.1959258437362526e-05,1.4928791230535884e-05,5.398451207601814e-06
11.900769230769207,1.7396874431104454e-05,3.7822029194482334e-06,6.832163468573072e-06,9.191144688713847e-06,1.2964955119088017e-05,9.910798312281106e-06,6.1425828704386735e-06,6.454502691847589e-06,5.541123078482239e-06,1.154732840120687e-05,1.5823987180615025e-05,5.57259479000057e-06
11.9630769230769,1.7768940289168237e-05,3.7954909866281622e-06,6.488771912671609e-06,6.781808724080444e-06,1.2444622457034409e-05,9.736654730356046e-06,5.763523317151946e-06,1.6728274967666342e-05,6.326517640549885e-06,1.160957250287235e-05,1.7202449024959304e-05,1.0622059433984533e-05
12.025384615384592,2.0445436307644136e-05,3.808779060439823e-06,6.506955594195081e-06,9.90520331806503e-06,1.3213931487617476e-05,9.816383138646264e-06,7.235701026549653e-06,2.8470728217655505e-05,6.399252308142423e-06,1.169000029885107e-05,1.6247806495546987e-05,2.1604295373360097e-05
12.087692307692283,1.8045192120534163e-05,3.822067131409312e-06,6.006205347119931e-06,1.6486292295780913e-05,1.631424686744746e-05,1.0292655348583442e-05,1.137528294895181e-05,2.8716907088721655e-05,5.679598686469944e-06,1.1639645484962103e-05,1.4836474191307995e-05,2.154275067714669e-05
12.149999999999975,1.1389270352424318e-05,3.7850004190431717e-06,5.866330954281314e-06,1.5868747019946265e-05,2.1689618800261694e-05,9.811487490433517e-06,1.1250794770489847e-05,1.952086670987304e-05,5.572594803500882e-06,1.1709582655565025e-05,1.5598789506536074e-05,1.1143091489410987e-05
12.212307692307668,1.0528343648985583e-05,3.7891966485403827e-06,6.649627404916222e-06,8.473589207606362e-06,2.0148203226947695e-05,9.700986759971405e-06,7.372777921451264e-06,1.2024300004990589e-05,5.649525705090734e-06,1.1648737313407764e-05,1.6329633040612635e-05,6.392258588524176e-06
12.27461538461536,8.615561657639622e-06,3.7633198843423086e-06,6.104117400459094e-06,7.304239483355938e-06,1.380909688985336e-05,9.470893450232628e-06,6.333511381247566e-06,1.6277180122396355e-05,5.680997449057183e-06,1.1378080412782764e-05,1.561767249166716e-05,6.6706085914821266e-06
12.336923076923052,6.937768610744873e-06,3.7654179995646094e-06,5.733450341930772e-06,7.267172784253262e-06,1.3179662277688445e-05,9.7247654215001e-06,6.23350120510698e-06,1.4621067632229294e-05,6.218115017257257e-06,1.1187851294873022e-05,1.5770834951448858e-05,6.301340270198352e-06
12.399230769230744,7.3434042851279935e-06,3.7563261618818916e-06,6.1712570830726085e-06,1.726119631465887e-05,1.2135500145641724e-05,1.0519251821487311e-05,6.0020091072014265e-06,1.935161872879121e-05,5.539724316605543e-06,1.1257788487976465e-05,1.66695277343365e-05,4.815175100011023e-06
12.461538461538437,6.525838613905913e-06,3.7514305546437754e-06,6.471287592072864e-06,3.1121347402063296e-05,1.182148215477241e-05,9.700287422020892e-06,6.62165257310221e-06,3.6826822769360966e-05,5.653721931745773e-06,1.1686503405646439e-05,1.5430240838062068e-05,4.383662673272207e-06
12.52384615384613,6.558709083037684e-06,3.83535519574707e-06,6.063553829468068e-06,2.2679929323269713e-05,1.4595190858083622e-05,9.32542409870507e-06,7.630146786160216e-06,4.3820541267791666e-05,6.322321401341924e-06,1.169699397015241e-05,1.5240011708783641e-05,5.344599579615306e-06
12.58615384615382,7.46089874894551e-06,3.839551429981232e-06,5.948856843455512e-06,1.2655133375716331e-05,1.3509066438643912e-05,9.770923942179858e-06,6.581788391220774e-06,2.585018193812516e-05,5.457198447326542e-06,1.1220721760215231e-05,1.596176345325754e-05,5.969138640674979e-06
12.648461538461513,7.806388431674804e-06,3.794791625940282e-06,6.6258487819936814e-06,9.563210505803e-06,1.2128506403996652e-05,9.821978087150759e-06,6.206225688506114e-06,6.594377041343099e-06,5.303336654094437e-06,1.1508163576934294e-05,1.6480697360539884e-05,4.559205009731689e-06
12.710769230769206,7.100022890445719e-06,3.774509837247327e-06,6.821672915909479e-06,4.458495474087461e-06,1.2317336782767067e-05,1.0134597280379391e-05,6.8244703840036894e-06,1.0387070519612962e-05,5.864232853743564e-06,1.189141937274485e-05,1.5800907919801452e-05,4.797690805465512e-06
12.773076923076898,6.837059102338116e-06,3.866127547288063e-06,6.105516147177544e-06,4.766918452503433e-06,1.2342514205225067e-05,9.990526696886567e-06,7.217517369895176e-06,1.2758640418060925e-05,5.264871192878218e-06,1.1884425680600922e-05,1.597784897313659e-05,5.484473951848182e-06
12.835384615384589,7.229406714988803e-06,3.852140111841133e-06,5.806884356474029e-06,6.841954682101914e-06,1.3386676369719908e-05,9.391165040995019e-06,1.4586798355746093e-05,1.3323033530809881e-05,5.504755727277674e-06,1.1764833095403067e-05,1.6756949176273868e-05,5.29774166769433e-06
12.897692307692282,8.196637950893168e-06,3.7283512919354206e-06,6.374074922158949e-06,8.037880506606144e-06,1.3476195942748366e-05,9.992624821109076e-06,1.7094745753591194e-05,2.018457057246792e-05,6.648228675487644e-06,1.2701291950160491e-05,1.5523956607665924e-05,5.115904985094251e-06
12.959999999999974,8.48827599237249e-06,3.696180185860006e-06,6.4635945122404335e-06,7.46999058544399e-06,3.069123362398803e-05,1.0644439353531727e-05,1.083886473149202e-05,6.761736706290359e-05,5.56490171301031e-06,1.2415248830895583e-05,1.5826085273573654e-05,4.734047957081581e-06
13.022307692307667,7.926680409298114e-06,3.819969003870938e-06,6.281058456399554e-06,1.1781617966022395e-05,3.199346397622094e-05,9.816383086776643e-06,9.387668165080261e-06,8.216500059177179e-05,6.291549050511473e-06,1.1449416341472821e-05,1.6265290798382164e-05,5.201228348520696e-06
13.084615384615358,1.0081444994132956e-05,3.898298654310869e-06,6.210421926529838e-06,1.4958164852174605e-05,1.8417257954439493e-05,9.278566156467605e-06,7.945563438719698e-06,5.440693256654565e-05,6.0838356162662425e-06,1.2608275498138254e-05,1.6465311137873565e-05,6.22021311755816e-06
13.14692307692305,1.4572111552032159e-05,3.8129752927792046e-06,6.632143156082293e-06,1.5059573736190638e-05,2.5810317623372233e-05,1.005696701597003e-05,7.009104563356535e-06,3.376846976242594e-05,5.7362478147619335e-06,1.26922001195832e-05,1.5663131684107157e-05,5.91598637835015e-06
13.209230769230743,1.8275984844251524e-05,3.82556398790257e-06,6.319523934431951e-06,2.1675631365525306e-05,3.3043920501304075e-05,1.0098229968728372e-05,6.4775819730300555e-06,9.654128846629344e-06,6.916787477706521e-06,1.1373884197022714e-05,1.5318341347381192e-05,5.589379744463941e-06
13.271538461538436,2.1105643426011512e-05,3.789896019649556e-06,5.734849070175111e-06,2.1819002639963022e-05,2.5563439327906203e-05,8.530238305345014e-06,7.895208666279056e-06,7.840657673104564e-06,5.074642060047078e-06,1.1429833935968266e-05,1.6455519954661213e-05,7.4455125994650945e-06
13.333846153846126,1.5119020492212106e-05,3.751430559380727e-06,6.126497288505561e-06,1.2926489681082861e-05,1.4380483693798852e-05,1.0736057075888539e-05,9.06805522712754e-06,8.955456374574548e-06,4.7312504861452e-06,1.1954362809281823e-05,1.5991836444110657e-05,7.986826387451629e-06
13.396153846153819,7.790302891900561e-06,3.7815035530760117e-06,6.560107821940165e-06,8.654027102750205e-06,1.5582004551835855e-05,1.1753643113365797e-05,7.207026776967496e-06,8.982731882885749e-06,5.783805105134358e-06,1.1581597650926293e-05,1.612331835663857e-05,7.805689062223564e-06
13.458461538461512,1.6414956451645443e-05,3.806680945217522e-06,6.352394388168629e-06,8.172859278469483e-06,1.6451323734401058e-05,9.545026838016687e-06,6.67200732422657e-06,1.2727868034071814e-05,5.688690530310699e-06,1.1377381076727033e-05,1.6017013864910724e-05,1.1191348162261269e-05
13.520769230769204,2.473748132535055e-05,3.829760213610219e-06,5.8033874938227354e-06,6.058658225308969e-06,1.5117621659991679e-05,9.433127351599068e-06,7.784008559497124e-06,1.9997838272918973e-05,5.037575356917993e-06,1.2054372991580446e-05,1.492039880896338e-05,2.081120782240949e-05
13.583076923076895,2.5872561738538025e-05,3.8045828243108796e-06,6.4635945105825e-06,6.460797008855934e-06,1.5201546317200609e-05,9.913595831534395e-06,9.451311037622644e-06,2.3679331671644378e-05,5.128493693717928e-06,1.1963454670649299e-05,1.5839373425781862e-05,2.378493685289603e-05
13.645384615384588,2.197426309180628e-05,3.735345004921934e-06,6.4901706589163645e-06,7.149678277329485e-06,1.735910842768362e-05,9.98842860369109e-06,1.2992230624083353e-05,1.838298874166829e-05,5.376770702270051e-06,1.1249396015955426e-05,1.615129326353326e-05,1.8936891192566917e-05
13.70769230769228,1.3784618882321335e-05,3.6919839402571598e-06,6.239795562616261e-06,4.658515824947547e-06,2.2788331929509316e-05,9.372981370129689e-06,1.0031789631170796e-05,1.0289857837856669e-05,5.826466790873989e-06,1.1694196508453085e-05,1.6376490938796452e-05,1.1858548813374151e-05
13.769999999999973,9.283461756126598e-06,3.691983946888892e-06,6.357989399200884e-06,5.2131176853246565e-06,1.975096001795388e-05,1.0040182091349456e-05,5.164161661970941e-06,7.874227540819826e-06,6.094326197588392e-06,1.1633351151848122e-05,1.6471605507225227e-05,6.219513758528213e-06
13.832307692307664,7.228707308826188e-06,3.725553810340898e-06,5.729953466726556e-06,8.929579611087016e-06,1.3347511500209444e-05,1.0075150694414484e-05,7.055962473145882e-06,1.8766244478740647e-05,5.494265176745709e-06,1.1452213842488845e-05,1.5735866363068377e-05,5.821571198320423e-06
13.894615384615356,6.673406068102849e-06,3.7178607063500143e-06,6.004806584295845e-06,1.8350118186560848e-05,1.2503369719259657e-05,9.654828222949163e-06,6.656621159824757e-06,3.095000118686168e-05,5.2760611505201876e-06,1.1531942241778855e-05,1.5812097882180372e-05,6.264972925151824e-06
13.956923076923049,7.281160199804996e-06,3.6479235130097247e-06,5.935568790960133e-06,2.2062383912668793e-05,1.3548930631420338e-05,9.734556621765478e-06,5.77541266532459e-06,4.233577477847916e-05,5.109610638953654e-06,1.1846659558045757e-05,1.547709873458795e-05,6.34889752504364e-06
14.019230769230742,7.071348646547903e-06,3.7353450115536664e-06,6.09152871599387e-06,1.5352610611548318e-05,1.3623763401682253e-05,9.85624734587039e-06,6.278260997542399e-06,5.290468200935076e-05,5.571196048729613e-06,1.2068360459238647e-05,1.591210800621449e-05,5.116604349571693e-06
14.081538461538432,6.64543119602475e-06,3.809478434391167e-06,6.364283721419876e-06,1.0121309241147477e-05,1.2553025087195616e-05,9.84295926921656e-06,6.9195849585905e-06,3.103742273822263e-05,5.562104230705245e-06,1.1355001211891628e-05,1.5758945633592702e-05,5.944660599510598e-06
14.143846153846125,7.122402789860871e-06,3.787797906322036e-06,5.959347436856888e-06,8.802993300823422e-06,1.269849441266994e-05,9.666018171590924e-06,6.446110239721747e-06,7.621754282638449e-06,5.1956333943318595e-06,1.1592787624910745e-05,1.571418584044674e-05,5.701978575463803e-06
14.206153846153818,7.254584080603385e-06,3.764019255451482e-06,5.918084495467231e-06,7.417537707728646e-06,1.1985834543063827e-05,9.818481219288818e-06,6.5055568484240215e-06,7.288153921791718e-06,5.494265161113769e-06,1.1888621878360558e-05,1.622262911074775e-05,4.682993822768822e-06
14.26846153846151,7.52663971468337e-06,3.7815035578129634e-06,6.267770416693944e-06,5.086531379324318e-06,1.2023600620854797e-05,1.0078647542854924e-05,6.552414764134559e-06,1.2799203983130761e-05,5.373273833223872e-06,1.1486483051944181e-05,1.5826784666235955e-05,5.399150587474347e-06
14.330769230769201,7.357391712995801e-06,3.831158974776372e-06,6.392957978107461e-06,4.780905884634497e-06,1.592119990831975e-05,1.051295746303064e-05,1.1074553006788316e-05,1.3529348194178208e-05,5.469087769919649e-06,1.1586493243243013e-05,1.557081457050913e-05,5.478878991738156e-06
14.393076923076894,7.711973241223783e-06,3.771712360389756e-06,6.258678569063629e-06,6.624450042617506e-06,2.898546579928052e-05,9.23450574982591e-06,1.4882632649933688e-05,1.3458012283014872e-05,6.2300043455347044e-06,1.235510289276931e-05,1.5974352132512117e-05,4.893504747371935e-06
14.455384615384586,7.986826386030543e-06,3.7059714022310193e-06,6.52793672368072e-06,8.612064811093963e-06,3.275647866184765e-05,9.494672057523228e-06,1.1414447753802884e-05,4.87385239473781e-05,5.205424606676464e-06,1.2378182138661486e-05,1.6821990798140025e-05,5.124996808329267e-06
14.517692307692279,8.560311286013682e-06,3.836054565908853e-06,5.504056364695013e-06,8.551219449041507e-06,2.1002835602483098e-05,1.0087040018191828e-05,8.241397732670445e-06,6.795726197997473e-05,5.351593307996912e-06,1.2046679905116282e-05,1.5353309907103117e-05,5.592876587220038e-06
14.57999999999997,9.65203071103815e-06,3.912286100179093e-06,6.748238863707456e-06,9.226113261936083e-06,1.972298515084958e-05,9.984931733697521e-06,7.594478791617121e-06,5.122968634528509e-05,6.146079711063142e-06,1.1949467238044538e-05,1.5926794847113495e-05,9.14358740663109e-06
14.642307692307662,1.537499040817162e-05,3.8031840925138265e-06,7.52314286529554e-06,9.106520706344174e-06,2.9761768485532986e-05,1.0414346046635122e-05,6.7377482932802955e-06,2.8925319774468032e-05,5.20472521898796e-06,1.2082347905106871e-05,1.705488162428992e-05,1.1299750772053585e-05
14.704615384615355,1.879631743904042e-05,3.819969022818744e-06,5.9901198042666696e-06,1.1891419353797042e-05,3.438391695406532e-05,9.762531497633139e-06,5.433419825114546e-06,1.091929252154955e-05,6.772017486156301e-06,1.204108496134874e-05,1.5611378121131262e-05,9.783512624039759e-06
14.766923076923048,2.2312059727861802e-05,3.881513754322441e-06,5.591477851870271e-06,1.351955698609686e-05,2.24078736332937e-05,9.502365148487495e-06,6.503458735096501e-06,9.123305623622476e-06,7.370679770464979e-06,1.1912400521888837e-05,1.448049386093923e-05,7.415439605532962e-06
14.82923076923074,1.840676738803874e-05,3.867526306559436e-06,6.207624425513813e-06,8.013402523706266e-06,1.2653734642498194e-05,9.945067521499595e-06,6.946860478270385e-06,1.0798301138000474e-05,5.425027347882861e-06,1.1673215347703565e-05,1.5769436174650764e-05,8.909997185687265e-06
14.891538461538431,9.077147056520593e-06,3.825563986007788e-06,6.575494007895107e-06,5.2236082422515056e-06,1.5743559455690577e-05,1.0515754922598338e-05,7.365784193069658e-06,1.4598687687339407e-05,5.476780856383812e-06,1.166272479432943e-05,1.6723379402823942e-05,1.3992332294302893e-05
14.953846153846124,2.0571323225245428e-05,3.8108771785042944e-06,5.7180641377385655e-06,4.575290558032445e-06,1.7478001593929095e-05,1.0001017255945043e-05,7.555313963791832e-06,1.981040664489342e-05,5.53832557012394e-06,1.1726367638213257e-05,1.565683733607178e-05,1.6092545957964907e-05
15.016153846153816,3.023594263472281e-05,3.771712350915853e-06,6.148177810179808e-06,7.80988530095783e-06,1.5606482529288237e-05,1.0156277849423152e-05,7.1678619737743554e-06,2.4037410064181586e-05,5.393555621206284e-06,1.147179626078317e-05,1.549248489354227e-05,1.875575392252434e-05
15.078461538461509,2.3672337938999514e-05,3.705272015963601e-06,6.377571778415358e-06,1.1306045089298777e-05,2.054194954557905e-05,9.884921571530943e-06,8.179853027219982e-06,1.667722081795849e-05,5.39215688751445e-06,1.21774624290083e-05,1.5640052364318535e-05,1.5684112809566387e-05
15.1407692307692,1.5705793362978208e-05,3.754927422505716e-06,5.908992650915934e-06,7.563007030834493e-06,3.012684057518792e-05,9.899608357955003e-06,9.791905125429896e-06,8.427430619661891e-06,5.613857754601289e-06,1.1895615570504484e-05,1.5509269829531528e-05,7.972139562184566e-06
15.203076923076893,1.1010910195826303e-05,3.7381425016747017e-06,6.232801811497287e-06,5.619452720869352e-06,2.5702614422111007e-05,1.0233908102937524e-05,8.044874254882946e-06,6.93706927089958e-06,6.251684867919493e-06,1.1581597629610011e-05,1.6684913896843532e-05,6.567800926404743e-06
15.265384615384585,8.021794958542235e-06,3.7080695013476845e-06,5.924378845160542e-06,6.89650570227703e-06,1.583447776525304e-05,9.568805506413961e-06,5.877520930160548e-06,2.5572531212247894e-05,5.995015402978273e-06,1.1251494115308939e-05,1.683947511187019e-05,6.457999546209218e-06
15.327692307692278,6.057958844962741e-06,3.7353450030271537e-06,5.92158135575005e-06,1.5407161586722396e-05,1.5919101722990567e-05,9.421238051269635e-06,6.89091073671951e-06,4.484651971570959e-05,5.9649424035986465e-06,1.10332900860044e-05,1.6018412577286274e-05,5.701279217381246e-06
15.389999999999969,6.800691742607038e-06,3.7507311911137244e-06,6.987424008049933e-06,1.8214440136195738e-05,2.1589608564672366e-05,1.0406652952591837e-05,6.715368407365455e-06,5.414606705234822e-05,5.5166450557919685e-06,1.1399061574479673e-05,1.589742122571162e-05,5.849546060924619e-06
15.452307692307661,7.311932557504027e-06,3.798288481486149e-06,5.834159853179699e-06,1.0108720563313985e-05,3.1480125079734e-05,1.0189148307896781e-05,6.280359111580462e-06,4.553190409903133e-05,5.170456002427196e-06,1.1752943768783552e-05,1.5667327890393305e-05,5.407543074416784e-06
15.514615384615354,6.236998041468193e-06,3.737443120144235e-06,5.045268438408357e-06,7.963747154349222e-06,2.4973868933623557e-05,9.002314301180074e-06,6.913989994690913e-06,1.815499354052008e-05,5.30613413071516e-06,1.2099832195862821e-05,1.5862452636620596e-05,5.391457506220831e-06
15.576923076923046,6.7594287884276126e-06,3.702474528684737e-06,7.544124008044643e-06,6.577592151775965e-06,1.4916901982312917e-05,9.944368175259418e-06,7.084636727228144e-06,9.044975984077534e-06,5.52783500253895e-06,1.1607474400913512e-05,1.5482693744672815e-05,4.973932496217988e-06
15.639230769230737,7.124500894898726e-06,3.7199588263092664e-06,9.18834722133018e-06,4.4424099080231375e-06,1.5900218776465636e-05,1.0675211744152572e-05,6.745441384718258e-06,1.0224816261465245e-05,5.715266671775983e-06,1.1227016132882757e-05,1.5744958160487008e-05,4.523537060189635e-06
15.70153846153843,7.2035299145530494e-06,3.6919839383623793e-06,6.1775514609507806e-06,5.7775107452566015e-06,2.2656850025507916e-05,9.984931742224034e-06,9.29884791579146e-06,1.5375689823097598e-05,5.453701601017732e-06,1.1803298518723674e-05,1.649188728123363e-05,4.600467967700676e-06
15.763846153846123,7.207726151155687e-06,3.7150632152815888e-06,5.307532873880897e-06,6.981829061440218e-06,6.87153813186588e-05,9.46669723020932e-06,1.3019506086446124e-05,1.456931409956989e-05,5.52643625676789e-06,1.2225719106358686e-05,1.6668828378859266e-05,4.999809269653118e-06
15.826153846153815,8.18964422061678e-06,3.7325475195378506e-06,6.876223911689295e-06,7.1161084529573294e-06,0.00012097454315191195,9.600976602068082e-06,1.1639645497041328e-05,1.011991048708675e-05,5.633440151579331e-06,1.2060667315694219e-05,1.6928295301947098e-05,5.607563385249629e-06
15.888461538461506,8.42393377737949e-06,3.662610332829293e-06,7.398654682096624e-06,8.112013918548656e-06,0.00025362719806641584,9.800996936111991e-06,7.84835077875338e-06,6.370857810769811e-05,5.570496684725867e-06,1.1661325994557121e-05,1.6108631513844784e-05,5.662114381266292e-06
15.950769230769199,7.18884311439183e-06,3.7276519132471247e-06,6.43841714094151e-06,9.832468637209027e-06,0.00019588216353412237,9.922687624216072e-06,7.3392080816840155e-06,9.710638069767204e-05,5.961445550421255e-06,1.1859947653410548e-05,1.4737862710963631e-05,5.5851835014664175e-06
16.01307692307689,7.928079150095375e-06,3.7003764144098267e-06,7.4713893328729835e-06,7.979133305250723e-06,1.970410212237539e-05,9.970944273144747e-06,7.84415453954542e-06,7.273327219271171e-05,6.236998054968505e-06,1.158999012697374e-05,1.557640955454076e-05,5.187240930600486e-06
16.075384615384582,1.303069603556158e-05,3.5591032978269747e-06,6.967841620308945e-06,6.117405464796851e-06,2.0979056989508158e-05,1.0245797426951715e-05,7.37557541441447e-06,5.451533530731467e-05,5.1019175541474246e-06,1.1476691877968884e-05,1.637579160653028e-05,5.68519367594907e-06
16.137692307692276,1.7711591724397142e-05,3.637432940687783e-06,5.918084511809715e-06,8.014801252187454e-06,3.2113056560471404e-05,1.0101027476612974e-05,6.1509753287225525e-06,3.2889359381253296e-05,5.384463765049455e-06,1.2171867463450781e-05,1.605408058627707e-05,6.4139391440676265e-06
16.199999999999967,2.017477937220254e-05,3.640230425124476e-06,7.216118639756056e-06,1.0656328716388923e-05,2.8117545242167807e-05,1.0359795087803528e-05,6.371976824226522e-06,1.6821291436504755e-05,6.292248406462401e-06,1.1803298477275348e-05,1.5902316849765915e-05,6.186643294133395e-06
16.262307692307658,1.5628862437940447e-05,3.5856794132390255e-06,5.7621245701966474e-06,9.814984396901612e-06,1.4306350304120011e-05,9.628252133353499e-06,7.307736331796377e-06,9.481383990580147e-06,5.4285242084025265e-06,1.1725668193207639e-05,1.5479196846731232e-05,6.927278074186915e-06
16.324615384615353,8.931677713756396e-06,3.653518490409624e-06,6.511851183195935e-06,7.5846875877990294e-06,1.3560819975566574e-05,9.20233465014538e-06,6.779011234906799e-06,1.2551626294765583e-05,4.779507137442352e-06,1.1911701115726221e-05,1.566383101021529e-05,7.244093513018394e-06
16.386923076923043,9.235205090618593e-06,3.7269525497170737e-06,7.5588108141270516e-06,6.538427303581784e-06,1.4791714374714122e-05,1.0654230588376852e-05,6.162864663158037e-06,1.230544740546217e-05,5.689389894077598e-06,1.1917296108284366e-05,1.6187660525919987e-05,7.716868842067015e-06
16.449230769230738,1.4410556696968039e-05,3.691983946888892e-06,6.119503572913724e-06,6.66711171533052e-06,1.3530746919580375e-05,9.933877605069104e-06,5.968439281171338e-06,1.2871239257113605e-05,5.923679473340826e-06,1.1745250638502588e-05,1.553444727827961e-05,8.334414187298005e-06
16.51153846153843,1.9674029181497115e-05,3.683591478420567e-06,6.7349507889484055e-06,9.517051959306854e-06,1.3820986209604295e-05,9.499567682998608e-06,6.327217027764694e-06,2.3545751634183414e-05,5.426426092469683e-06,1.1649436740649815e-05,1.6072264232747103e-05,1.4190254564520425e-05
16.57384615384612,1.858510722409316e-05,3.697578927130962e-06,8.478484769132896e-06,1.8536850546505927e-05,1.4523155546678861e-05,9.956257470851899e-06,6.818176057284594e-06,2.7434958393968145e-05,5.408941793424067e-06,1.2034091255941348e-05,1.627088578667705e-05,2.3016327082340617e-05
16.636153846153814,1.360348160706811e-05,3.736044388347182e-06,6.632143140450353e-06,1.7473105987638367e-05,1.7554932468518322e-05,9.228211395632494e-06,6.725159598630626e-06,2.433044675408761e-05,5.664212520410198e-06,1.1580898262053551e-05,1.5449823237645433e-05,2.0949683298473096e-05
16.698461538461505,9.82197807909794e-06,3.7780066975301453e-06,5.485173322009965e-06,1.0727664631104971e-05,2.200223798543751e-05,1.0031090263377489e-05,9.244996298463094e-06,2.0446135608409576e-05,5.9362681634903915e-06,1.117176577570452e-05,1.5154688306277345e-05,1.2348808504469843e-05
16.760769230769196,7.250387826474025e-06,3.7318481465338967e-06,6.3202232963040695e-06,9.090435172254275e-06,2.2834490458952435e-05,1.0821380431972708e-05,8.39106328266818e-06,1.6423348868480994e-05,6.185244520888015e-06,1.1723570184093053e-05,1.6363902239646678e-05,8.330917335304851e-06
16.82307692307689,6.734950808369907e-06,3.6612115839792145e-06,6.383166778315778e-06,6.9678416432831606e-06,1.8590002787751322e-05,9.92338700574654e-06,5.929973835587058e-06,2.440877644479163e-05,5.751633981058527e-06,1.1964853420446768e-05,1.6552033302967097e-05,6.714669017308476e-06
16.88538461538458,7.812682826369155e-06,3.691983949731063e-06,6.199231988309369e-06,1.057310346605315e-05,1.3032094828939004e-05,9.643638266728279e-06,7.005607707100126e-06,4.746916395935348e-05,5.548116770152471e-06,1.1357099256770199e-05,1.582468661330457e-05,6.246089898809259e-06
16.947692307692275,7.259479696841708e-06,3.694082060216412e-06,6.0740444247642245e-06,1.315028865652342e-05,1.5296660841338886e-05,9.95765621070177e-06,6.751735720437561e-06,5.643930726743444e-05,6.131392889348793e-06,1.0831171630343306e-05,1.6510070998521088e-05,6.378271166577557e-06
17.009999999999966,7.141985202470854e-06,3.6591134630725717e-06,6.277561633538653e-06,1.2207535399255675e-05,1.8773937628206266e-05,9.619160252801369e-06,6.508354344229398e-06,5.513707703386217e-05,5.332710263417084e-06,1.177322550537004e-05,1.5651941725517798e-05,6.390859844884744e-06
17.072307692307657,7.541326530950225e-06,3.6968795541270082e-06,6.493667530094171e-06,1.0179357092710006e-05,1.995587602721116e-05,9.824775592903733e-06,6.572696541695677e-06,4.152660158448877e-05,5.272564276026514e-06,1.209493656280832e-05,1.5477098801615816e-05,6.190839510603988e-06
17.13461538461535,7.316128815896642e-06,3.6751990232157066e-06,5.915287012688472e-06,9.514254474396466e-06,1.662546732887904e-05,9.699588031490218e-06,6.859438988489804e-06,1.599183637897757e-05,5.450204728181992e-06,1.167321535907225e-05,1.633522801161765e-05,4.883713541659063e-06
17.196923076923042,7.630146755843726e-06,3.643727290144246e-06,5.936268161358764e-06,6.119503584519256e-06,1.2870539957769249e-05,9.690496213702696e-06,7.318926278306511e-06,1.1548727136556636e-05,5.1886396813453455e-06,1.2143892594451699e-05,1.5955469093616634e-05,5.369776971993664e-06
17.259230769230733,7.917588589378966e-06,3.701775166102076e-06,6.2125200280149785e-06,3.948653407093161e-06,1.1408852817851311e-05,1.0141591062051702e-05,1.1129104031700383e-05,1.5963861501451977e-05,5.772615169519213e-06,1.1667620370777361e-05,1.5255397856369276e-05,5.867729727289846e-06
17.321538461538427,7.115409104111828e-06,3.7912947666048543e-06,5.941863142311376e-06,5.180247204350508e-06,1.2601981124523339e-05,1.0243699335887868e-05,1.8396976184457495e-05,1.7161885513890713e-05,5.662114396661385e-06,1.1231212357406168e-05,1.6354110977327232e-05,5.839055483155183e-06
17.383846153846118,7.230106050097144e-06,3.80038659860323e-06,6.616057605649909e-06,5.587281610767529e-06,1.3388075059831786e-05,9.737354099333592e-06,1.7945181989868313e-05,1.7876643506298252e-05,5.262073705125658e-06,1.249287916304335e-05,1.9421555905078473e-05,6.136288504876575e-06
17.446153846153813,7.407746506042182e-06,3.7815035521286214e-06,6.277561625248988e-06,5.811779965606926e-06,1.3327229735438096e-05,9.839462375064538e-06,1.2841166296103286e-05,5.9075938881629024e-05,5.6180539750982915e-06,1.2920195331152703e-05,1.8695607962134395e-05,6.129294776968663e-06
17.508461538461503,7.516848539286987e-06,3.798987840279248e-06,6.339805707729814e-06,7.216118606597396e-06,1.4907110713835436e-05,1.0082144417348596e-05,9.712176685402104e-06,8.54093866770711e-05,5.596373435660477e-06,1.3004119936492014e-05,1.6151293190110514e-05,7.2587802975476736e-06
17.570769230769194,7.484677403368778e-06,3.71086699146872e-06,8.250489577695437e-06,7.959550870613915e-06,1.944533451639548e-05,9.814285013476364e-06,8.196637923892542e-06,7.234372210736713e-05,5.566300445044211e-06,1.1692797777129726e-05,1.646461177173819e-05,6.86573330928771e-06
17.63307692307689,8.130197600308974e-06,3.636034206048559e-06,7.588184447371304e-06,7.498664822710073e-06,2.6579626570584954e-05,1.0008710385989162e-05,7.907097978214022e-06,5.656169729206795e-05,4.828463170980512e-06,1.1343811246433689e-05,1.6278578879772946e-05,5.263472434791083e-06
17.69538461538458,1.3261488750278734e-05,3.7269525459275127e-06,8.039279274640876e-06,6.184545141489177e-06,3.098566916577283e-05,1.0334617639292295e-05,6.713969633883228e-06,3.086327919537742e-05,5.8656316177518875e-06,1.1303947038499019e-05,1.578062613939816e-05,6.162864629051986e-06
17.75769230769227,1.6694705078871644e-05,3.76122177385696e-06,7.097924789434273e-06,7.478383043017326e-06,2.4211553616500698e-05,1.0613666978305976e-05,7.313331335723206e-06,1.4118918641751559e-05,6.127896039724116e-06,1.1299750790527696e-05,1.5269385340133113e-05,6.646829921190071e-06
17.819999999999965,1.2531344573811035e-05,3.7080695013476845e-06,5.648126973056833e-06,6.214618137552937e-06,1.3473398431074201e-05,1.0044378348557832e-05,6.930774942522551e-06,8.228109665964211e-06,5.094224454893492e-06,1.2262785809487771e-05,1.5984143341067163e-05,7.19443808492315e-06
17.882307692307656,9.344307128363502e-06,3.7003764058833135e-06,6.638437492748987e-06,3.897599256911614e-06,1.4085348812168756e-05,9.644337674785675e-06,6.8741257917300425e-06,8.670112654366828e-06,5.939065650769256e-06,1.16074744217561e-05,1.622962287513019e-05,8.241397742618043e-06
17.94461538461535,1.6053381151692748e-05,3.690585199933594e-06,5.983825461678786e-06,5.890808990945591e-06,1.4979146048214412e-05,1.029265535071507e-05,7.665814710122731e-06,1.4728770891991872e-05,5.892907108536368e-06,1.1751545012828047e-05,1.5933089217412542e-05,1.0813687349061258e-05
18.00692307692304,2.5050100479973025e-05,3.674499646422191e-06,6.038376456748059e-06,5.551613655304284e-06,1.3585997395182403e-05,1.021852191129824e-05,6.337707614297491e-06,2.2783436304270784e-05,5.775412634534405e-06,1.2054372993475226e-05,1.5889728123378668e-05,1.4520358118375042e-05
18.06923076923073,2.838470530122095e-05,3.745835586717779e-06,6.558709096537996e-06,6.6202538235415885e-06,1.4835774901911236e-05,9.2282113657897e-06,6.5747946595233015e-06,2.7783944814766908e-05,5.899201461782392e-06,1.1657829178091106e-05,1.6053381092244005e-05,2.0069873723116417e-05
18.131538461538426,2.4608097345909147e-05,3.7514305641176784e-06,6.1202029589442946e-06,1.2541835162712308e-05,2.2993247919581943e-05,9.691195551890057e-06,1.0118511748421117e-05,2.41332238601899e-05,5.566300475597548e-06,1.0922789380174436e-05,1.5862452599435528e-05,1.6062473081035476e-05
18.193846153846117,1.4200045773549164e-05,3.7136644768528034e-06,5.8390554786550785e-06,1.4761641336728341e-05,2.610894944510278e-05,1.0263281717233971e-05,8.436522474871329e-06,1.3703491745313083e-05,5.785903228646324e-06,1.1515856716452314e-05,1.591910176064933e-05,7.245492252868265e-06
18.256153846153808,8.934475230878055e-06,3.6877877088651683e-06,6.15377280392219e-06,1.4243406831819054e-05,1.798154936452079e-05,9.908000822633767e-06,6.057958852778711e-06,9.824076187451661e-06,5.674703104337672e-06,1.2152285084710001e-05,1.644083315094728e-05,6.644731822783948e-06
18.318461538461502,8.378474612650659e-06,3.6199486373789113e-06,5.917385124358058e-06,1.4351809472638403e-05,1.4281172926899899e-05,9.65552761324299e-06,7.369281055957799e-06,1.865784190139645e-05,5.266969320890288e-06,1.1583695765201203e-05,1.5598789453482216e-05,7.134292101085293e-06
18.380769230769193,7.2748658614803695e-06,3.675199018478755e-06,6.499961866050322e-06,1.513720406691732e-05,1.5486190619640183e-05,9.655527613006143e-06,6.694387243063223e-06,3.444616112252182e-05,6.330713871705029e-06,1.1255690399044246e-05,1.5237214206346532e-05,7.700083930946751e-06
18.443076923076887,6.915388733356546e-06,3.6640090769424206e-06,6.2866534555894305e-06,1.1894216877313587e-05,1.5120419174271168e-05,9.855547952497546e-06,6.383166772868284e-06,3.959493663643343e-05,5.506853854816048e-06,1.1706785228208598e-05,1.618066683353921e-05,6.285954082348629e-06
18.50538461538458,6.676203562250294e-06,3.636034197522046e-06,5.550914279931855e-06,7.082538602295093e-06,1.37475522182721e-05,9.436624208329174e-06,6.389461105982264e-06,3.961242089284648e-05,5.183044700866428e-06,1.1331222535204687e-05,1.6969558277679653e-05,5.283754233194789e-06
18.56769230769227,6.634241258514824e-06,3.700376409672875e-06,5.80898248827566e-06,8.102922128472301e-06,1.4201444530688908e-05,9.711477334424974e-06,6.930075539202107e-06,2.5141018786930167e-05,5.736947183028936e-06,1.1484384951880126e-05,1.6563223228634647e-05,4.883014170786737e-06
18.629999999999963,7.474886224182834e-06,3.6968795522322277e-06,7.115409084216632e-06,6.613260101081172e-06,1.3205539036675874e-05,1.0332519529517489e-05,6.953154804752633e-06,1.0340911976432683e-05,5.285852356469908e-06,1.1987233292624448e-05,1.6682815780200144e-05,5.705475459194531e-06
18.692307692307654,7.87632563804171e-06,3.680793997773435e-06,6.893708213340233e-06,3.810177770920594e-06,1.2778922226175382e-05,9.747844674260856e-06,6.542623531184214e-06,1.0422039103967033e-05,5.598471568172651e-06,1.1872536295480056e-05,1.6732471180347375e-05,7.570000785506181e-06
18.75461538461535,7.397955299381919e-06,3.688487096079977e-06,6.0090028329777095e-06,4.0934233550634264e-06,1.2435530661984255e-05,9.658325082758286e-06,6.601370777540675e-06,1.0847257177222977e-05,5.459296564917319e-06,1.1701889568390318e-05,1.589042750064588e-05,6.439116528630014e-06
18.81692307692304,7.763726775067425e-06,3.7108669971530618e-06,6.271267263002755e-06,5.290747947365541e-06,1.2237608402424863e-05,1.0223417488930408e-05,9.003013695026614e-06,1.3018806772654064e-05,5.631342034699097e-06,1.2034091221835297e-05,1.6652043408763955e-05,5.111009401540893e-06
18.87923076923073,7.924582282233436e-06,3.670303421661932e-06,6.205526311949446e-06,5.069746464177646e-06,1.3988136112175198e-05,9.635945144263284e-06,1.4292362916279444e-05,1.946421770000484e-05,6.102019299447648e-06,1.2187952993514273e-05,1.7391978818655692e-05,5.092825720254268e-06
18.941538461538425,8.24069834498194e-06,3.650721001235979e-06,6.455202069351648e-06,6.32861576121968e-06,1.3423043689186898e-05,9.709379225123864e-06,1.224110529610319e-05,6.014108248090603e-05,5.564901742379409e-06,1.1489280525485887e-05,1.581349658508202e-05,5.0634520952996805e-06
19.003846153846116,9.053368412992312e-06,3.725553794235263e-06,5.827865540908306e-06,6.511851186274953e-06,1.3970651835156408e-05,1.0051372056096853e-05,8.329518604692037e-06,7.340746688176599e-05,5.490068937537747e-06,1.1940375425230816e-05,1.558829887405485e-05,5.379568153074387e-06
19.066153846153806,8.598077364752044e-06,3.76751611478691e-06,8.068652884910914e-06,9.341509646295283e-06,1.74996820706023e-05,9.950662521400015e-06,8.96384886672763e-06,6.0352992104621235e-05,6.012499690418356e-06,1.1969049666997005e-05,1.605128305683934e-05,6.631443744235336e-06
19.1284615384615,1.1505366085392173e-05,3.7731110893446385e-06,7.948360920077373e-06,1.2069759167824637e-05,2.269041978948394e-05,9.856247317685529e-06,7.348299912261306e-06,4.4722730842750023e-05,4.93966328794689e-06,1.1424938349809585e-05,1.5570814580219878e-05,8.583390557011701e-06
19.19076923076919,2.0120927739005387e-05,3.754228045712201e-06,6.762925657000096e-06,1.0202436343575982e-05,3.083810167320659e-05,1.0142989743400222e-05,7.1573714130579445e-06,1.752206201312371e-05,5.905495782580298e-06,1.2158579405507908e-05,1.6282775121112536e-05,8.891813539927777e-06
19.253076923076886,2.290932326142562e-05,3.6940820630585827e-06,6.4349202700005515e-06,1.0673812941301245e-05,3.162209755321518e-05,1.0260484217165337e-05,8.084738450027847e-06,1.1778820498638727e-05,6.40834414582514e-06,1.2053673615971169e-05,1.59498741145588e-05,6.827967232917823e-06
19.315384615384577,1.7203847796783597e-05,3.7052720140688204e-06,5.980328582448162e-06,8.713473702452272e-06,2.067622899962392e-05,9.19813841567437e-06,7.00211081721136e-06,1.2776824117821661e-05,4.912387798583495e-06,1.175783931728347e-05,1.594497847842528e-05,6.833562219554778e-06
19.377692307692268,1.0968248479533335e-05,3.7423387311719127e-06,6.837059084811396e-06,4.713766195152402e-06,1.4099336228194185e-05,9.620559001177754e-06,6.385264901590896e-06,1.4438531579941127e-05,5.490068917879398e-06,1.177112742235901e-05,1.5843569603883148e-05,1.0557717279387665e-05
19.439999999999962,1.0216423774996504e-05,3.76331988813187e-06,5.802688143319301e-06,5.135487397704234e-06,1.38042013456167e-05,1.0216423812892118e-05,6.925879349732138e-06,1.4818989841576998e-05,5.6187533391020375e-06,1.1414447790987954e-05,1.6100938441591477e-05,1.3088044568358252e-05
19.502307692307653,1.7567521174773524e-05,3.7542280532913234e-06,6.458698915897306e-06,7.8245721108298e-06,1.3185956681383005e-05,1.0099628709999327e-05,6.765023801828344e-06,2.062307670319304e-05,5.41733425431327e-06,1.1673914693233201e-05,1.6744360494887662e-05,1.127946898146585e-05
19.564615384615344,2.4036011238592893e-05,3.7304494033681595e-06,6.61605757912298e-06,1.0503865622032057e-05,1.4332926463112017e-05,9.774420802936372e-06,5.892207750453811e-06,2.473608244149735e-05,5.595674054366858e-06,1.2114518944864965e-05,1.5054678175611495e-05,1.4062269514643806e-05
19.62692307692304,2.608167383992092e-05,3.7171613333460604e-06,5.771915783962337e-06,1.308454767610101e-05,1.274884922821684e-05,1.0569606607428264e-05,7.094427940283291e-06,2.13035654998824e-05,5.718763512874147e-06,1.2141095121620537e-05,1.5171473316399897e-05,1.869840542667589e-05
19.68923076923073,2.1745568504153803e-05,3.6975789252361817e-06,6.58668397595837e-06,1.365873197964144e-05,1.564494799310978e-05,9.927583242586024e-06,1.197884083315633e-05,1.4627361965580121e-05,6.275463509316145e-06,1.1269677835675415e-05,1.6035896891253287e-05,1.3411853732492318e-05
19.751538461538424,1.3755944684608796e-05,3.6849902310602072e-06,7.22311232929466e-06,9.0981282525604e-06,2.434093741570109e-05,9.139391184002458e-06,1.1608173718968828e-05,1.0212227558052215e-05,5.8082831074557365e-06,1.111301853597979e-05,1.6265290828224958e-05,6.874125795045908e-06
19.813846153846114,9.29255363265232e-06,3.6842908590036435e-06,6.195735109789287e-06,1.1938976684907251e-05,1.983068845158679e-05,1.0468197706359205e-05,7.386065936761573e-06,8.530238308424031e-06,5.2054245697282415e-06,1.1903308705996097e-05,1.6045688067833907e-05,6.091528711256918e-06
19.876153846153805,7.065753671753328e-06,3.64792353006275e-06,6.060756351899954e-06,1.3438429903800397e-05,1.2805498337561024e-05,1.0103125584729847e-05,6.459398303348962e-06,1.5388278524852693e-05,5.571196051571784e-06,1.1879530053467609e-05,1.5906513060552166e-05,5.2879504761923124e-06
19.9384615384615,6.792998656142875e-06,3.6535185008309173e-06,6.2153175124516714e-06,1.2234810931962177e-05,1.5158884550695954e-05,9.800996944401655e-06,6.599972049059488e-06,3.03289591641942e-05,5.78520385753715e-06,1.1152882707439934e-05,1.579950915839845e-05,5.152971692012898e-06
20.00076923076919,6.9846265567719005e-06,3.6954808081191003e-06,6.131392896217373e-06,1.9978255869782895e-05,1.7163284226266266e-05,9.810088781136982e-06,6.983927181162623e-06,4.48150480198232e-05,5.45510034892042e-06,1.1517255444933501e-05,1.605687804110782e-05,5.860036618088315e-06
20.06307692307688,6.933572432880434e-06,3.7227563192724725e-06,6.327217019238182e-06,1.915159834785148e-05,1.7147198674412798e-05,9.483482119065911e-06,6.983227813606163e-06,4.212736198994094e-05,5.639035142242695e-06,1.1775323675777827e-05,1.6275082061885843e-05,5.00680298571865e-06
20.125384615384576,6.591579589591371e-06,3.763319891921431e-06,6.354492527312535e-06,1.0771725043667858e-05,1.589742118189482e-05,1.0287060385631245e-05,6.388062375843144e-06,1.9959372888678217e-05,5.6047659079183635e-06,1.1406055309966707e-05,1.5665929131595626e-05,4.453599862586088e-06
20.187692307692267,6.896505679065968e-06,3.717161335240841e-06,6.328615768325108e-06,6.176152698363543e-06,1.2526448919913946e-05,9.935975732370632e-06,6.116706095819305e-06,5.004005503413585e-06,5.378868795228678e-06,1.1555720857359119e-05,1.6220531011631087e-05,4.554309418125513e-06
20.24999999999996,7.477683684224227e-06,3.6996770319319693e-06,6.518145513230896e-06,6.133491016413473e-06,1.1399760958852312e-05,9.71427485296772e-06,6.766422539072891e-06,8.649830869937128e-06,5.81597620955184e-06,1.1776023008517692e-05,1.679611404507379e-05,4.804684538584069e-06
20.31230769230765,7.864436305027312e-06,3.797589103745243e-06,6.344701299809685e-06,5.28725111574128e-06,1.3233513934807206e-05,1.0082144428717281e-05,6.507654979515109e-06,1.1904707401318622e-05,5.5788891745104745e-06,1.1648737351540224e-05,1.5645647350718644e-05,4.266867591222004e-06
20.374615384615343,9.214223924658426e-06,3.8108771709251715e-06,6.06355382923122e-06,4.573192452284047e-06,1.2365593484039058e-05,9.599577867902554e-06,6.909094405216365e-06,9.370183883087673e-06,5.820871813947785e-06,1.161376874989628e-05,1.5414155298998367e-05,4.353589704445919e-06
20.436923076923037,8.93517458422366e-06,3.7633198833949184e-06,6.8804201248440226e-06,6.595076416004985e-06,9.978847186905189e-05,1.0309440315836583e-05,6.776213757812381e-06,8.323224238419394e-06,5.983126060963666e-06,1.1759238066133549e-05,1.6166679396671196e-05,4.730551126404711e-06
20.499230769230728,8.572200626844052e-06,3.7276519160892955e-06,6.661516753088866e-06,6.390160482538931e-06,0.00016414816508785178,9.910098972435814e-06,6.9160881307558e-06,7.435022010563822e-06,5.678899322229351e-06,1.2074654779326011e-05,1.5970155876014283e-05,5.084433273339073e-06
20.56153846153842,9.065257765191367e-06,3.6388316904852522e-06,6.039075829278318e-06,5.117303743891929e-06,7.623782452602276e-05,9.305142315222762e-06,9.83596556475656e-06,8.737252358059777e-06,5.556509256621211e-06,1.1885824400555597e-05,1.5584802010929858e-05,5.09981944816218e-06
20.623846153846113,8.989725604161928e-06,3.630439230069745e-06,5.54252182022689e-06,5.9264769485404635e-06,1.3003420571540876e-05,9.652730141596067e-06,9.967447464494702e-06,7.38389792592405e-05,5.055059653595132e-06,1.1669718489552375e-05,1.581489535027458e-05,5.368378215090767e-06
20.686153846153804,8.668713911201091e-06,3.819969000555072e-06,6.3621856066712706e-06,7.82876834932722e-06,1.2862846874384104e-05,9.759034636166083e-06,8.37287964401412e-06,9.643708217481617e-05,5.666310638711517e-06,1.2276073862219998e-05,1.6539444572790293e-05,5.49076830083095e-06
20.7484615384615,7.581190712357966e-06,3.843048274158415e-06,7.844154510650014e-06,7.88331937684461e-06,1.4929490637172194e-05,1.033951324463563e-05,9.535235657409657e-06,7.011762163126416e-05,5.894305841991354e-06,1.1713778884114845e-05,1.6078558553545007e-05,4.8928054068161e-06
20.81076923076919,8.648432139561161e-06,3.689885840193104e-06,5.920182589136403e-06,9.247793836901035e-06,2.8151115171700287e-05,1.0313636496543191e-05,8.216919737691342e-06,5.631691708742892e-05,5.0774395340624775e-06,1.1773225474579856e-05,1.6127514544687453e-05,5.643930752322982e-06
20.87307692307688,1.6279977563016244e-05,3.6493222713337068e-06,6.227906230549252e-06,9.685600580174498e-06,4.117691565947249e-05,1.0262582355361853e-05,6.250286115279854e-06,3.056324868850879e-05,6.170557707937027e-06,1.2262785796224307e-05,1.604708678423587e-05,5.694984871477497e-06
20.935384615384574,2.4045802465858893e-05,3.678695885393305e-06,7.316828172794961e-06,1.105007501417769e-05,5.2133274821386524e-05,9.775120201756711e-06,6.326517651444874e-06,1.8517268140527678e-05,6.381767998912361e-06,1.1441723280825045e-05,1.5395272229075847e-05,5.059255872907897e-06
20.997692307692265,1.981460287320639e-05,3.6731009042038448e-06,5.8817171551576545e-06,1.001080847586877e-05,4.132098617404267e-05,9.828272454844486e-06,6.383166776657845e-06,7.34760051107249e-06,4.88721040691568e-06,1.1324228807770472e-05,1.584496829565296e-05,6.551016016705565e-06
21.059999999999956,1.0492675640231634e-05,3.6661071912173307e-06,6.125797919764864e-06,5.2662699377018875e-06,1.7773136463479962e-05,1.0328323300257125e-05,7.397255942009906e-06,1.0179357110947269e-05,5.497062658577079e-06,1.231174187263188e-05,1.5552630912433567e-05,9.168065427663425e-06
21.12230769230765,9.262480636825406e-06,3.7157626024963974e-06,6.327217001948308e-06,5.219412035491663e-06,1.5616273735711653e-05,9.458304732371896e-06,7.413341486757948e-06,1.1590689506135732e-05,5.997113512753079e-06,1.2101930314874683e-05,1.6269487073827803e-05,1.1162673918837148e-05
21.18461538461534,1.543583591067469e-05,3.686388982752457e-06,6.5013606032948704e-06,7.414040880841336e-06,1.545821571582451e-05,9.426833034353877e-06,6.464293909165993e-06,1.6048485547059955e-05,5.394254984736335e-06,1.1645240467098954e-05,1.6298860631043986e-05,1.0492675696601358e-05
21.246923076923036,1.876414647152084e-05,3.6444266650429804e-06,6.1649627530376465e-06,9.356895858777155e-06,1.3098535140680193e-05,1.0604575206703734e-05,6.120202956575819e-06,2.2234429428162152e-05,5.4530022237505214e-06,1.2124310153420007e-05,1.5567317645566922e-05,1.8866254706277156e-05
21.309230769230727,2.118956791482181e-05,3.682192747570904e-06,6.453103949155547e-06,7.153175181429105e-06,1.253903764938021e-05,1.0149983498545605e-05,6.23280182097119e-06,2.790004066710594e-05,5.599170934544873e-06,1.1781617963180225e-05,1.575335058419114e-05,2.5193471712488722e-05
21.371538461538417,1.821094325246501e-05,3.7199588263092664e-06,7.0860354540513985e-06,5.880318416492021e-06,1.6214236674017e-05,9.30374357537289e-06,9.074349585584212e-06,2.5710307527286127e-05,5.5439205520239435e-06,1.1622860559630984e-05,1.5797411047439407e-05,1.671149005441445e-05
21.433846153846112,1.220263981830764e-05,3.693382684370287e-06,5.41383739616208e-06,8.942168314973741e-06,2.336461435371954e-05,9.90800083210767e-06,1.3364296461778244e-05,1.659679314987746e-05,5.7523333507466155e-06,1.1878131284485486e-05,1.5919801119679276e-05,1.1114417233197098e-05
21.496153846153803,9.216322063802334e-06,3.6388316791165683e-06,5.897802718616655e-06,8.730258644125873e-06,2.1464421048023043e-05,1.0142290400002214e-05,1.0446517169289867e-05,1.0124106721084066e-05,5.663513137458646e-06,1.1650136093284876e-05,1.552395668250976e-05,7.5818900910462615e-06
21.558461538461493,6.294346536606099e-06,3.6227461274999466e-06,6.88881260183886e-06,8.593181774330106e-06,1.4169273414665895e-05,1.0003814775435179e-05,6.357290005354344e-06,7.5783932250791015e-06,5.563502970791964e-06,1.1403957218429165e-05,1.5221828049997536e-05,5.769817674898074e-06
21.620769230769188,6.823771020473638e-06,3.660512211922651e-06,5.539724315184457e-06,1.0117112985360185e-05,1.4051778999165284e-05,9.847854862954363e-06,6.992319645604539e-06,2.171829312729301e-05,5.728554731376789e-06,1.1678810338130082e-05,1.560997939786072e-05,6.186643279685692e-06
21.68307692307688,6.683197280921149e-06,3.701075789308561e-06,5.842552319042701e-06,7.206327398989742e-06,1.4940680611393493e-05,9.416342424846864e-06,6.143981622841466e-06,6.304976983268299e-05,5.682396185117492e-06,1.127527278702208e-05,1.6121220235731924e-05,5.390758127532536e-06
21.745384615384573,6.35449252186504e-06,3.7108669971530618e-06,6.637038728503815e-06,5.469787167082056e-06,1.7800412035029467e-05,9.379275711296487e-06,6.2642735774905605e-06,6.708934147141577e-05,5.625747050904314e-06,1.1378779845235461e-05,1.5958965996532015e-05,5.030581624983673e-06
21.807692307692264,7.018895773806359e-06,3.6975789252361817e-06,6.006205339777656e-06,7.1405864548050126e-06,1.6871646213208654e-05,1.0377279332374201e-05,6.995816518440278e-06,2.6551651787798393e-05,5.506154482759484e-06,1.1955761614264778e-05,1.5861753284932924e-05,5.359985763675468e-06
21.869999999999955,7.334312446497885e-06,3.6758983952722703e-06,5.749535880994472e-06,7.341306170379387e-06,1.2388672718325704e-05,1.029825031745683e-05,6.67410548255513e-06,7.65812159121045e-06,5.506154477075143e-06,1.1735459483475098e-05,1.6000228866393704e-05,4.996312409843995e-06
21.93230769230765,6.870628900183344e-06,3.745136213713825e-06,6.206925056062573e-06,5.160664806661922e-06,1.2312441180739597e-05,9.419139911652035e-06,6.70627659005163e-06,9.11071691191978e-06,5.40054931642923e-06,1.169349716197606e-05,1.8354314444953464e-05,4.141680016308177e-06
21.99461538461534,7.016098270185012e-06,3.7884972698520867e-06,6.356590630929304e-06,3.866826895186174e-06,1.1867640661004467e-05,9.79610131750519e-06,6.944762358311133e-06,1.2488682887124015e-05,5.967739887561644e-06,1.1927087321813208e-05,1.838928303949198e-05,4.295541822803746e-06
22.056923076923034,7.339907429582126e-06,3.7346456376023222e-06,6.027186481579368e-06,5.052262151394871e-06,2.600124619126139e-05,9.867437249984808e-06,1.0163271536830128e-05,1.0424836612325331e-05,5.684494300339793e-06,1.2053673590154782e-05,1.7328335996088148e-05,5.177449704992417e-06
22.119230769230725,7.68399834996103e-06,3.7185600831435293e-06,5.97892981038702e-06,7.259479649945888e-06,2.8994557709438595e-05,9.424734898999531e-06,1.6535248343529928e-05,1.3695099365425752e-05,5.650924454414508e-06,1.2492879125384586e-05,1.9916711174043182e-05,5.13268991137276e-06
22.181538461538416,8.2826606596124e-06,3.7472343317782967e-06,7.19933368292421e-06,6.533531687817155e-06,1.538618045486828e-05,1.040735233530654e-05,1.3971351193949507e-05,6.713340195479608e-05,5.476081499011798e-06,1.2432033800990893e-05,1.8489992645953633e-05,5.31382722049519e-06
22.24384615384611,7.965145867435315e-06,3.7801048004363715e-06,6.616756952126934e-06,6.573395906646814e-06,1.329226114374175e-05,1.0554220413894199e-05,7.941367239065281e-06,9.499427765078395e-05,5.236196960822781e-06,1.232922611933418e-05,1.6683515179257333e-05,5.9054957915805065e-06
22.3061538461538,7.443414468847701e-06,3.7157625788116397e-06,6.848249037953262e-06,6.283156609517467e-06,1.555822587278044e-05,9.93177947350432e-06,8.660321469970237e-06,7.914091677297582e-05,5.9404643934612976e-06,1.1623559967214684e-05,1.6437336292559242e-05,6.424429697441762e-06
22.368461538461492,8.10502022048354e-06,3.686388964752041e-06,6.434220910733757e-06,6.2572798327664715e-06,3.116051218820341e-05,9.959754345345573e-06,8.480582893118557e-06,6.1179649377389e-05,5.269067422375429e-06,1.1481587510312844e-05,1.631774374999395e-05,7.55601334129589e-06
22.430769230769187,9.230309510617947e-06,3.7710129693853863e-06,6.109013006986667e-06,6.417435971665479e-06,4.727194124403885e-05,9.330319688890161e-06,6.6356399955225244e-06,3.1713015973622306e-05,6.854543367277681e-06,1.205507238803231e-05,1.6836677620564917e-05,9.058264051968005e-06
22.493076923076877,1.8831985433346668e-05,3.7612217710147887e-06,7.023092003777265e-06,7.666514072468544e-06,3.743667510960336e-05,9.73455661963385e-06,6.4125403942701576e-06,1.644992499739336e-05,6.27965971678653e-06,1.1761336208356473e-05,1.4891025151086978e-05,8.156773726142319e-06
22.555384615384572,1.95026830300075e-05,3.680094624769481e-06,6.0397751951768445e-06,1.0633948786420433e-05,1.9159990846636294e-05,1.060877139451577e-05,7.201431838884295e-06,1.0923488714809082e-05,4.367577138945459e-06,1.2024300053544342e-05,1.5138602820267504e-05,6.678301672735642e-06
22.617692307692263,9.31633225652225e-06,3.6535184875674533e-06,6.070547570639443e-06,8.316230553617743e-06,1.6945080218514856e-05,9.905203319722962e-06,7.010503322864755e-06,1.3587396026556083e-05,5.600569687658208e-06,1.1913799299160626e-05,1.6924798486902167e-05,1.0003115390825693e-05
22.679999999999954,1.3953866910062137e-05,3.741639357220568e-06,6.344001952148422e-06,5.777510774625701e-06,1.926559595920215e-05,9.535235637751308e-06,7.665814703490999e-06,1.854384420667543e-05,5.943261872924192e-06,1.1557119640552097e-05,1.5832379656188778e-05,1.4691704161862163e-05
22.742307692307648,2.5152208739361488e-05,3.786399163156299e-06,6.383166762683837e-06,6.015297165144299e-06,1.6868149341794e-05,1.0379377467491698e-05,6.98252841123311e-06,2.239598428938431e-05,5.855141017481931e-06,1.1941774141869625e-05,1.5050481924561154e-05,2.1455329167470913e-05
22.80461538461534,2.9791841520913445e-05,3.757025538675407e-06,6.27476412565405e-06,7.830866452470294e-06,1.757591371334873e-05,1.0375181226388955e-05,7.101421638822103e-06,1.8231924385977057e-05,5.30613413071516e-06,1.173126320281881e-05,1.6082055406248704e-05,2.0406271396685345e-05
22.86692307692303,2.0214643592216437e-05,3.738841867099533e-06,5.820871810868767e-06,1.130464635608064e-05,2.555294886263937e-05,9.837364251078877e-06,1.3863647928502588e-05,1.1531242841300581e-05,5.495663908542762e-06,1.1261984713447267e-05,1.567711909302716e-05,1.143263141543116e-05
22.929230769230724,9.901706462045468e-06,3.6849902310602072e-06,5.892207756375001e-06,1.0611568877057683e-05,3.1808829811078945e-05,1.0080745661156242e-05,1.2594288056533287e-05,8.438620582514508e-06,5.801289407258991e-06,1.187533384031288e-05,1.529386327424239e-05,7.893110561004354e-06
22.991538461538415,7.318926287069871e-06,3.7780067022670966e-06,6.357989390911219e-06,7.400752786660784e-06,2.2922611289288853e-05,1.03940642546263e-05,7.377673525610362e-06,8.044874233329817e-06,5.504056368247726e-06,1.1734760096733984e-05,1.6112128348311218e-05,6.571997151875545e-06
23.05384615384611,6.598573285288012e-06,3.8577350996623254e-06,6.005505969615873e-06,8.181251726805765e-06,1.4649741896732848e-05,9.660423201770147e-06,7.116807832593016e-06,9.15827417718636e-06,5.479578340583657e-06,1.1480888088044593e-05,1.61380051215095e-05,4.94316014515069e-06
23.1161538461538,6.715368386522869e-06,3.791994130134905e-06,5.653022548557374e-06,1.1850855762910821e-05,1.5854060148493924e-05,9.70728112387557e-06,6.1299941852629065e-06,3.5581241486681844e-05,5.714567276508357e-06,1.1786513569707798e-05,1.61449988259695e-05,4.878118557390583e-06
23.17846153846149,6.7433432623905295e-06,3.874520023335511e-06,6.10271865208271e-06,1.1349406178832548e-05,1.7308753577793822e-05,1.008773940895935e-05,7.238498535381647e-06,6.47618320726906e-05,5.72855471171844e-06,1.1626357426071838e-05,1.629046817347065e-05,6.306935233150549e-06
23.240769230769185,7.376974129395345e-06,3.971732720250051e-06,6.5789908740991145e-06,8.14208693379707e-06,1.8457122146505373e-05,9.840861141915032e-06,6.718865244200364e-06,4.8943439891502295e-05,5.698481722286412e-06,1.169209839749404e-05,1.5600188186937204e-05,8.956155766763156e-06
23.303076923076876,7.072048017420229e-06,3.876618135715641e-06,5.94815745647755e-06,8.06375728619931e-06,1.6331031787567932e-05,9.220518312721046e-06,5.9796292260235384e-06,1.7675923787881707e-05,5.5809872579952e-06,1.1793507334327085e-05,1.5818392201320344e-05,7.670010956436121e-06
23.365384615384567,6.7440426436841484e-06,3.848643261032218e-06,7.2622771611463575e-06,6.695785980070923e-06,1.2870539938584595e-05,9.815683749299826e-06,6.303438397026184e-06,7.109814118659112e-06,5.469787151686963e-06,1.1927087319918428e-05,1.595197226436085e-05,4.764120955040122e-06
23.42769230769226,7.785407292241569e-06,3.877317509666985e-06,7.56370644955003e-06,4.292044978389716e-06,1.2166272500024888e-05,1.0866140232224098e-05,6.756631345202398e-06,1.5461013247157023e-05,6.022990279793324e-06,1.1887223093746494e-05,1.5193153779335943e-05,5.766320794720059e-06
23.489999999999952,7.876325627146722e-06,3.863330071377883e-06,5.797093170419506e-06,4.415833789058373e-06,1.3632855246944094e-05,9.609369014877226e-06,6.74264388891288e-06,1.941456226740949e-05,5.597072820743657e-06,1.1473894344978438e-05,1.52749802452945e-05,5.25647873743651e-06
23.552307692307647,6.856641504763653e-06,3.868225671036877e-06,5.984524824261446e-06,5.830663008765668e-06,0.00011394865349861523,9.23030949853872e-06,6.774814986698629e-06,1.3064265944014627e-05,5.112408139969679e-06,1.1545929664909712e-05,1.6677220859406816e-05,4.7899977230277575e-06
23.614615384615337,7.290951414281229e-06,3.801085970659794e-06,6.545421037174037e-06,6.013199066738177e-06,0.0002576143153724786,1.003528651134881e-05,1.249777468975329e-05,8.459601751790539e-06,5.579588535435202e-06,1.1929185477773293e-05,1.621563543755163e-05,5.571196054177107e-06
23.67692307692303,7.359489852376555e-06,3.8059815646344456e-06,6.249586742512747e-06,6.097823054555344e-06,0.00015710968670722044,1.0436026576599033e-05,1.3962259293739028e-05,4.007190795363158e-05,5.731352206102732e-06,1.1901210592668577e-05,1.5384781675464865e-05,5.680298063974002e-06
23.739230769230723,7.034981309080498e-06,3.847943866238287e-06,6.030683347546528e-06,8.497367823660322e-06,1.2932084654456352e-05,9.72476540184175e-06,8.373578990491145e-06,5.994665672446331e-05,5.62015207587289e-06,1.1787212986765402e-05,1.574915440443192e-05,5.293545455013297e-06
23.801538461538414,7.865135704795042e-06,3.7724117163406845e-06,6.469888845354414e-06,7.21262177639422e-06,1.5639353069000587e-05,9.693993053142928e-06,7.809885318247704e-06,4.902876321253302e-05,5.925777570325863e-06,1.180329855732983e-05,1.587923757142562e-05,5.03477788124466e-06
23.863846153846104,9.721967936352864e-06,3.693382703318093e-06,6.664314229709589e-06,7.48537679508369e-06,2.2807215008195195e-05,1.0048574592029052e-05,7.879123136926107e-06,4.315823618175803e-05,5.646028834860317e-06,1.1756440613908126e-05,1.6363202902880403e-05,5.999911005716285e-06
23.9261538461538,1.6212138591242818e-05,3.734645646128835e-06,6.65941864615623e-06,1.154592968267328e-05,3.486858169239326e-05,9.653429479783426e-06,6.9041987823463085e-06,2.5710307600708877e-05,6.138386603282697e-06,1.1676712221249848e-05,1.6238015340756344e-05,5.782406356757974e-06
23.98846153846149,1.9328539474846216e-05,3.731848153165629e-06,6.020192781619471e-06,1.0194043906845234e-05,5.52839448066796e-05,1.010242620722579e-05,6.291549058090595e-06,1.3915401495268043e-05,6.413239731746975e-06,1.2048778051602464e-05,1.5098738619675109e-05,6.670608564955198e-06
24.050769230769184,2.0639861639655994e-05,3.7115663644726737e-06,6.52653797198847e-06,1.0902507566375638e-05,4.146435728505556e-05,9.978637409820597e-06,6.878322038990821e-06,1.0687800457276354e-05,5.402647438993805e-06,1.2276073897036592e-05,1.545751635584717e-05,7.204928630718162e-06
24.113076923076875,1.6013516963179578e-05,3.7108669905213295e-06,6.516746775512653e-06,9.62405584985504e-06,1.6566720034916216e-05,9.789107605229219e-06,7.747641217766462e-06,1.2789412786418097e-05,5.030581629010081e-06,1.2029195649650623e-05,1.6189059310060353e-05,7.5825894557605505e-06
24.175384615384566,8.75823351644082e-06,3.7332468887522435e-06,5.906894551325574e-06,6.144680964344691e-06,1.756961923054708e-05,9.743648428184315e-06,6.360087495475379e-06,1.6281376358051602e-05,5.757928333357161e-06,1.1751545033433785e-05,1.5815594784385213e-05,1.0074451344147898e-05
24.23769230769226,1.2364894068876234e-05,3.720658195523659e-06,6.275463513579401e-06,7.72316319033924e-06,1.4944177399200953e-05,1.0072353209267249e-05,6.753134475919372e-06,1.8193459053132224e-05,6.134190369995925e-06,1.1627056827260654e-05,1.595476978385098e-05,1.1845960193094622e-05
24.29999999999995,1.7030403621731694e-05,3.6884870856586833e-06,6.339805709861442e-06,1.0038083927099705e-05,1.4613374553344253e-05,1.0217123174764234e-05,6.846850308761532e-06,2.1137115013658558e-05,5.453002211671295e-06,1.1845960167041388e-05,1.5629561867314125e-05,1.7200350937921865e-05
24.362307692307642,2.201412731039909e-05,3.6975789252361817e-06,6.6111619922537555e-06,1.3176165367430789e-05,1.7254901952886332e-05,9.66461943789909e-06,5.4592965895494675e-06,2.5114442570857895e-05,5.262073718862818e-06,1.2183756755727396e-05,1.5968057812424756e-05,2.390732684792359e-05
24.424615384615336,1.952576230005813e-05,3.68708835291424e-06,5.92437885416075e-06,1.1331222508204064e-05,2.6773352633095253e-05,9.949963182265265e-06,8.434424362254352e-06,2.2422560453113267e-05,5.608962147836868e-06,1.1655731068079452e-05,1.6636657230151285e-05,2.0081063543860484e-05
24.486923076923027,1.1793507300694728e-05,3.6269423607867186e-06,5.922280715016844e-06,6.763625043504362e-06,4.5381539169161064e-05,1.0396861767958399e-05,1.4097937516055481e-05,1.3734264137118164e-05,5.9852241837650885e-06,1.1543831580714444e-05,1.605967548078032e-05,1.1511660440532978e-05
24.54923076923072,7.987525759034497e-06,3.5870781592469334e-06,6.4845756746478855e-06,7.374876031226071e-06,4.3219081405491506e-05,9.53313750666022e-06,1.1193446281983673e-05,8.264477000826295e-06,5.39355562357476e-06,1.1570407699679209e-05,1.6233119776861334e-05,6.782508090689513e-06
24.611538461538412,6.762226298680692e-06,3.614353669452915e-06,6.1600671661684226e-06,1.1478789954821877e-05,2.6106151881558996e-05,9.721967911010173e-06,6.5440222911661294e-06,6.900002548822689e-06,5.757928337146722e-06,1.1601180057851934e-05,1.548269378327897e-05,5.279558020513756e-06
24.673846153846103,6.814679182554073e-06,3.6052618308228072e-06,5.615955886876615e-06,1.284606187823556e-05,2.19050253245238e-05,1.0007311629086264e-05,6.691589757205444e-06,2.0144007020187853e-05,6.21321937686048e-06,1.1785814236494236e-05,1.537499048088383e-05,5.7516340277175004e-06
24.736153846153798,6.93567050168061e-06,3.7080694956633425e-06,6.192937633405412e-06,8.663118943038246e-06,1.7239515783037027e-05,9.614264648168577e-06,6.99931337943364e-06,5.9313026255362426e-05,5.083733884940026e-06,1.1373184849124603e-05,1.558620079483338e-05,5.801988794236953e-06
24.79846153846149,7.441316338704004e-06,3.7668167370460046e-06,6.310432083248922e-06,7.323821893597445e-06,1.7706696121185434e-05,9.603774074899244e-06,6.953154837200751e-06,6.326937273399835e-05,5.480977100091877e-06,1.1490679286415191e-05,1.5371493651391197e-05,5.708272935341559e-06
24.86076923076918,6.6824979202332695e-06,3.7717123376523886e-06,6.35589125887274e-06,7.986826395504446e-06,1.9652348576689368e-05,1.0022697839910203e-05,6.123699838885462e-06,2.709366497318418e-05,6.301340268066724e-06,1.1662724744117743e-05,1.6499580438041526e-05,5.423628588137793e-06
24.923076923076874,6.280359126738707e-06,3.7346456319179802e-06,7.369980423514259e-06,5.994316031158557e-06,1.4255995541863815e-05,1.0166069066031013e-05,6.2957453164832105e-06,8.994621219452863e-06,5.77261516194009e-06,1.1313738205368888e-05,1.6039393745851763e-05,5.569797319301036e-06
24.985384615384564,6.683197289210814e-06,3.7290506649393746e-06,6.332811980532445e-06,5.088629488151734e-06,1.3174067311894078e-05,9.777218293531102e-06,6.560107855809368e-06,7.632944255438663e-06,5.446008506027056e-06,1.1670417857345683e-05,1.55952925538827e-05,5.668408756775989e-06
25.04769230769226,6.931474260814715e-06,3.7940922453572056e-06,5.863533498976873e-06,5.435517915704698e-06,1.3710485524616918e-05,1.0177958378676521e-05,6.244691158011998e-06,1.477073321325406e-05,5.685193670738423e-06,1.2036189347005195e-05,1.630725312367076e-05,5.0165942018528165e-06
25.10999999999995,7.517547873921634e-06,3.7919941348718565e-06,6.504857479683323e-06,5.252282514807878e-06,1.3422344284919063e-05,1.026957608255922e-05,6.468490136057881e-06,1.3455914137712928e-05,5.6474275882105e-06,1.2008913841773013e-05,1.5442829564923007e-05,4.399048876990719e-06
25.17230769230764,8.165865584904472e-06,3.743737478127211e-06,6.2293049618726094e-06,5.730652833098778e-06,1.39930316864915e-05,9.763930241509419e-06,8.169362458450753e-06,1.2054372981632848e-05,5.531331853347865e-06,1.1769029302873454e-05,1.5654039854950953e-05,5.499160765983409e-06
25.234615384615335,8.36029093657468e-06,3.6870883510194593e-06,6.13978537037004e-06,6.5251392236120864e-06,1.2965654516250424e-05,9.679306263876696e-06,1.5251201700057967e-05,1.647230489183471e-05,5.750235229839973e-06,1.1192047550423467e-05,1.6965362037761147e-05,7.12799777128718e-06
25.296923076923026,7.698685194649595e-06,3.7346456338127608e-06,6.4880725451151495e-06,5.452302839614731e-06,1.3258691304921892e-05,1.0033887769130463e-05,1.5114124782892684e-05,7.180940208328934e-05,5.512448822268349e-06,1.20599679831912e-05,1.630165815029727e-05,6.446110243985004e-06
25.359230769230717,7.251786604456356e-06,3.908089853628856e-06,6.416037232289303e-06,6.144680972634357e-06,1.3421644931573458e-05,9.721268551743378e-06,8.745644806396057e-06,9.384800746706409e-05,5.38935940284091e-06,1.302230361754179e-05,1.586245263827853e-05,5.318722836970362e-06
25.42153846153841,7.282558939654867e-06,3.905991738406555e-06,7.1573713896100346e-06,8.768024742285736e-06,1.7275883043055273e-05,9.928981965619717e-06,8.29245187219385e-06,7.308435698026491e-05,5.79499506940806e-06,1.2165573098362377e-05,1.5858256424176414e-05,5.534828734710118e-06
25.483846153846102,9.50935885934238e-06,3.771712344284121e-06,6.808384859150844e-06,1.2308944360247172e-05,2.9405088820292728e-05,1.036888685561621e-05,7.255982836085195e-06,6.147408505180844e-05,4.988619321011356e-06,1.1415147120411954e-05,1.5758945632645312e-05,5.10051882637678e-06
25.546153846153796,1.434481576628362e-05,3.7710129788592893e-06,7.229406687751331e-06,2.0869954968816274e-05,5.8487068034907e-05,9.854149201752686e-06,6.615358235251279e-06,3.48021412702811e-05,6.158668410686611e-06,1.2313839910878717e-05,1.5509269894427764e-05,5.045967814017634e-06
25.608461538461487,1.9643956158906423e-05,3.80598157789791e-06,6.9545535386813144e-06,1.7964764353687693e-05,7.525520715934893e-05,9.663920048315807e-06,6.518145535968264e-06,1.8510973699884895e-05,7.007705837717519e-06,1.2238307764060134e-05,1.546870634475302e-05,5.7439409114105425e-06
25.670769230769178,1.755703060174104e-05,3.7535286859717114e-06,6.013898423873343e-06,7.858141982097777e-06,4.1868594353881385e-05,9.80099693232243e-06,6.499961866997713e-06,6.386663624624589e-06,4.922878375642389e-06,1.1068258727438736e-05,1.565124236435622e-05,6.111810497818245e-06
25.733076923076872,1.0179357107868252e-05,3.762620509443574e-06,6.52024365355904e-06,5.643930732664633e-06,1.4557424780055802e-05,9.87582973834833e-06,6.755232589720587e-06,1.03716843355528e-05,4.985122442491275e-06,1.1372485469488916e-05,1.58393733682279e-05,7.276963960833882e-06
25.795384615384563,1.1711680809630327e-05,3.815073394738041e-06,6.277561623827902e-06,6.08523434072102e-06,1.8136110506124698e-05,1.0071653833421123e-05,7.1475801829497716e-06,1.4600785863431535e-05,5.826466762215432e-06,1.1943872246433785e-05,1.5951272842329445e-05,9.895412116615413e-06
25.857692307692258,1.8705399179452796e-05,3.805981565581836e-06,6.0712469121426695e-06,8.111314553834366e-06,1.7277981270543327e-05,1.001500470560283e-05,6.339106352015733e-06,1.8060578345805803e-05,6.002708483284399e-06,1.1790709839942792e-05,1.62079422696119e-05,1.4153887210947384e-05
