X [s],R TIBIALIS ANTERIOR: EMG 1->MAV [Volts],L TIBIALIS ANTERIOR: EMG 2->MAV [Volts],R VASTUS LATERALIS: EMG 3->MAV [Volts],L VASTUS LATERALIS: EMG 4->MAV [Volts],R RECTUS FEMORIS: EMG 5->MAV [Volts],L RECTUS FEMORIS: EMG 6->MAV [Volts],R GASTROCNEMIUS MEDIAL HEAD: EMG 7->MAV [Volts],L GASTROCNEMIUS MEDIAL HEAD: EMG 8->MAV [Volts],R SEMITENDINOSUS: EMG 9->MAV [Volts],L SEMITENDINOSUS: EMG 10->MAV [Volts],R GASTROCNEMIUS LATERAL HEAD: EMG 11->MAV [Volts],L GASTROCNEMIUS LATERAL HEAD: EMG 12->MAV [Volts]
0.062307692307692175,1.9520866696372727e-05,3.6206480231726346e-06,8.947063925527724e-06,3.3723010549617056e-05,0.00022932262636885526,1.099412530128537e-05,7.993470391056689e-05,0.00020886600058886984,8.297347490326956e-06,1.1753643116207968e-05,1.730036111666777e-05,6.841255337993365e-06
0.12461538461538436,3.205360988166224e-05,3.557704555608628e-06,1.4783321862665844e-05,3.617570756115166e-05,0.0006134533045795365,9.994023572090782e-06,4.711108572858317e-05,0.0001897647565421323,8.530937659164314e-06,1.2345311733004867e-05,1.520993872645704e-05,8.828170734413258e-06
0.18692307692307655,2.3944393429549867e-05,3.6136543011859127e-06,1.5926095439292946e-05,2.0109038436070627e-05,0.0006625506078532813,1.0143689143641647e-05,7.3629866930010245e-06,8.812994318271686e-05,7.37837286592935e-06,1.1797703546534422e-05,1.535051247287811e-05,1.056820785336754e-05
0.24923076923076873,1.216207623997434e-05,3.580084456681713e-06,7.690292716707367e-06,1.133402000021988e-05,0.00038418593220868047,1.04080517128106e-05,9.733857223655681e-06,4.2293812491323024e-05,6.497164362665823e-06,1.1569708291621813e-05,1.646531115113703e-05,1.6070166053575956e-05
0.31153846153846093,1.343982857401708e-05,3.5577045451873346e-06,6.419534092572121e-06,1.620724290892402e-05,0.0002145253174451985,1.0374481846516422e-05,1.655622954620147e-05,3.474199531320702e-05,7.583288843685902e-06,1.2002619477868848e-05,1.5987640180033697e-05,2.6750972718758703e-05
0.3738461538461531,2.2143510996860034e-05,3.5458152164361916e-06,5.804086879142764e-06,2.3405877158448144e-05,0.0001933896011488893,1.046400143422943e-05,4.020408924366355e-05,2.5776747716813966e-05,7.091630449688561e-06,1.1593486978730047e-05,1.57512525509181e-05,2.6303374781851592e-05
0.4361538461538453,3.161510385372897e-05,3.624144881086977e-06,6.702779699215474e-06,2.170220740988308e-05,0.00022919533992222797,1.0214325705248939e-05,3.659393174118009e-05,2.2511380707612715e-05,6.4552020631936106e-06,1.1293456447702965e-05,1.726539254415608e-05,1.5314844505572487e-05
0.49846153846153746,3.0930418862832694e-05,3.6744996530539234e-06,6.446809608462445e-06,2.1925307094505798e-05,0.00021010528631061712,1.0082843789168312e-05,2.2107843108661503e-05,1.6626166716567543e-05,6.980430308090036e-06,1.205926858721303e-05,1.554843466304116e-05,8.272170091080018e-06
0.5607692307692297,1.7752854670286904e-05,3.702474523947785e-06,5.825767421659596e-06,2.426050965714429e-05,0.00013986247767405757,1.0145087879701956e-05,1.7077960893630007e-05,5.104645105878565e-05,5.869128445586587e-06,1.2254393360677796e-05,1.4850461608280815e-05,4.923577732777555e-06
0.6230769230769219,7.466493721845306e-06,3.5730907351686863e-06,7.980532022126378e-06,2.0948983996049718e-05,8.896639169269823e-05,1.0059065136402978e-05,1.0023397160570843e-05,0.00013744335126399202,6.078240622287012e-06,1.2111721500929207e-05,1.676883854315747e-05,4.820770079068855e-06
0.685384615384614,6.267770391351254e-06,3.463988716134736e-06,1.0955659766883248e-05,1.966423796133654e-05,8.410226076875915e-05,9.529640646140555e-06,1.224530148367838e-05,0.00014188086553256578,7.004208928644099e-06,1.1587192622878698e-05,1.5907911787849116e-05,4.988619326932545e-06
0.7476923076923062,7.386065967078063e-06,3.5430177301047178e-06,2.1106342557430936e-05,1.590091813194287e-05,7.775825901603639e-05,1.0329022674682165e-05,9.130998725481731e-06,5.9973233096618135e-05,5.658617511983266e-06,1.1585094500077275e-05,1.5938684133705767e-05,4.893504744529764e-06
0.8099999999999984,6.7818087075011135e-06,3.4632893421833916e-06,1.9836283339695152e-05,1.450147509676943e-05,4.819371344477001e-05,1.1182256344000052e-05,1.9518768531412434e-05,2.0669934527954108e-05,6.283156583464233e-06,1.1897713669147455e-05,1.6107232755283956e-05,4.502555878834377e-06
0.8723076923076906,7.640637327455125e-06,3.5388215129235806e-06,8.007807535885073e-06,1.440845861585179e-05,1.9943986721197386e-05,1.0152081611636276e-05,2.9205767760250485e-05,3.827592113386421e-05,6.935670513522988e-06,1.2885226689481518e-05,1.8396276824953854e-05,4.2864500000424265e-06
0.9346153846153827,1.0944469892137931e-05,3.6423285488732898e-06,5.865631602356795e-06,1.2259988276260477e-05,2.0623076737062243e-05,1.0124806094798562e-05,2.873509057650381e-05,7.179821197264383e-05,5.6425319814460785e-06,1.4863749630222856e-05,2.338909231767161e-05,4.537524485452119e-06
0.9969230769230749,1.1236107921538026e-05,3.434615106338394e-06,5.516645053423493e-06,1.584776579595844e-05,2.044683503517793e-05,1.0036685257593565e-05,3.425942873628666e-05,8.260420630013717e-05,4.937565169645571e-06,1.690801355564986e-05,2.024121965386409e-05,4.701876854795728e-06
1.0592307692307672,9.467396549685722e-06,3.564698275226874e-06,6.990920840858431e-06,1.3470600947584899e-05,2.139588262698074e-05,9.933178199143338e-06,2.813852646994519e-05,0.00017132022332854528,7.444113843983283e-06,1.5877139451703214e-05,1.573376821824013e-05,4.67250324263091e-06
1.1215384615384594,1.1581597633162725e-05,3.8038834451488886e-06,1.4288865912940688e-05,2.3764655027018003e-05,6.538637097766772e-05,1.023180997042535e-05,6.597524197715643e-05,0.00020634966030902053,9.742949068443825e-06,1.3404859985399752e-05,1.7255601328732458e-05,4.83405815051204e-06
1.1838461538461515,2.2730983429160762e-05,3.633936086089307e-06,1.826549423877092e-05,3.317470309222396e-05,0.00025318938893406087,1.0313636479963861e-05,7.616998522929445e-05,0.00018124920523092668,1.0366089379469182e-05,1.280829583147162e-05,1.5661033572911264e-05,7.071348641810952e-06
1.2461538461538437,3.0563948075249904e-05,3.5178403720692584e-06,2.1722489271288245e-05,2.8318964411984855e-05,0.0003750374478594646,1.0428333449160239e-05,2.3133821634265436e-05,0.00014650790939943665,1.0161872823507187e-05,1.276983039867711e-05,1.5562422156515746e-05,8.708578122688475e-06
1.308461538461536,2.260299847544426e-05,3.4772767956307388e-06,1.804239465836114e-05,2.5110945807445734e-05,0.0003732666388259531,9.82337682202683e-06,7.737150641891806e-06,6.0052262170510555e-05,6.8195748037661964e-06,1.1744551282788507e-05,1.6461814329697214e-05,1.665763844324412e-05
1.370769230769228,1.281249206689002e-05,3.457694360046541e-06,8.202232937530122e-06,1.6923399732367748e-05,0.00034230614696374083,9.821278706567681e-06,9.561811779216593e-06,3.8894865367922195e-05,5.20822208495512e-06,1.080249740207743e-05,1.6113527146899286e-05,2.603341724215132e-05
1.4330769230769203,1.744443177145172e-05,3.5709926000511888e-06,6.3789705497659575e-06,1.8751557743475662e-05,0.0002227904941444573,1.082417791167245e-05,3.566166929995044e-05,3.293761592904805e-05,6.279659748997801e-06,1.2118015854412079e-05,1.5952671610601025e-05,2.89064367353357e-05
1.4953846153846124,2.5058492895387492e-05,3.664009067468517e-06,6.509753054473322e-06,1.918936450332846e-05,0.00016703657090886282,9.693993032774036e-06,3.742758316202336e-05,2.643485662829903e-05,6.496465010030761e-06,1.1979540227476567e-05,1.631844308533914e-05,2.4753566808991915e-05
1.5576923076923046,3.1114353610443383e-05,3.632537340081399e-06,5.984524808629507e-06,1.9224333048602678e-05,0.00017861397235539774,9.806591888406047e-06,1.707935963324303e-05,2.2279189282651637e-05,6.553114126954066e-06,1.1890719984819498e-05,1.6961165767763e-05,1.2281668849804343e-05
1.6199999999999968,3.4064304063718964e-05,3.6472241608483577e-06,5.727855359793921e-06,2.030696066531353e-05,0.00015876370153596517,1.1153582056522282e-05,2.098045577530646e-05,3.2715914994459656e-05,6.332112626949993e-06,1.1539635346717129e-05,1.434551511039217e-05,6.041873297846223e-06
1.682307692307689,2.0382492802421363e-05,3.580783842949131e-06,5.528534381464093e-06,1.2716678101772535e-05,0.00012647230477848362,9.788408221803973e-06,2.270930296101407e-05,7.532374535633343e-05,5.261374338516589e-06,1.161237002473096e-05,1.5140700901857447e-05,5.266269929175375e-06
1.7446153846153811,8.521845841376792e-06,3.5632995263767954e-06,8.398756423844134e-06,1.6284173836330258e-05,0.00010073751923205994,9.988428586401217e-06,3.336633097366833e-05,0.00016997043518263884,5.720861621227868e-06,1.1221421146956345e-05,1.692619722272563e-05,6.0467689240321455e-06
1.8069230769230733,6.845451560148301e-06,3.660512203396138e-06,2.008176298412915e-05,2.361988503949419e-05,0.00010000178025085424,9.73665475735667e-06,3.373000434147381e-05,0.00014196059315996952,6.875524506474069e-06,1.1155680191402931e-05,1.5556127813927863e-05,7.3280181358844254e-06
1.8692307692307655,6.992319627367275e-06,3.57798633482768e-06,2.204000406228109e-05,2.261278958570756e-05,6.951965873890724e-05,1.0066058849152644e-05,2.082169838525753e-05,3.501614914706389e-05,6.001309718328685e-06,1.1939675995146596e-05,1.5895323120673765e-05,6.630045027596528e-06
1.9315384615384577,1.0059065113428763e-05,3.6647084584728873e-06,1.2299852453168115e-05,1.4205640743843636e-05,2.0967867034234662e-05,1.1245899111618958e-05,2.5068284216681983e-05,1.8834782923467705e-05,5.269067414085764e-06,1.3451018541843496e-05,1.57036952581772e-05,6.030683350862394e-06
1.9938461538461498,1.4518959312444698e-05,3.743038108912818e-06,8.167264309832945e-06,6.5111518099551326e-06,1.6168078117336413e-05,1.005626764462401e-05,3.3427176331220686e-05,2.8730894396270893e-05,5.974034228728442e-06,1.4588197205019545e-05,2.5215851523559724e-05,5.4327204317417e-06
2.0561538461538422,1.694018464040899e-05,3.671002789928934e-06,6.791599920319414e-06,1.0824877301255735e-05,1.697585259847756e-05,1.0065359527307767e-05,4.110278209121058e-05,4.424785730800333e-05,6.071246917353316e-06,1.741645688468907e-05,2.806509228439798e-05,4.456397353891362e-06
2.1184615384615344,1.335030902254175e-05,3.829760191346547e-06,6.658719279073466e-06,1.666812893953799e-05,1.7891330299117195e-05,9.077147112890315e-06,3.1540970381390326e-05,0.00010026474388430036,6.5027593220653065e-06,1.9797118586003156e-05,1.734721898548249e-05,4.791396464298714e-06
2.1807692307692266,1.1785114881964395e-05,3.815772761583958e-06,1.156900893709197e-05,2.1267198158151737e-05,3.761501481894432e-05,1.0250693052427095e-05,2.3726189673330586e-05,0.00012943274570152615,9.296749828517174e-06,1.5127412821650902e-05,1.6189758688985497e-05,5.822969916380316e-06
2.2430769230769187,2.347231764569339e-05,3.601764985698234e-06,1.3702792406178333e-05,2.3998944552516832e-05,0.0001226908012687507,1.1897014342328779e-05,7.402221467553241e-05,0.00018019245469034218,1.0024096555127926e-05,1.1000419621135885e-05,1.6854161930268675e-05,7.390961589711272e-06
2.305384615384611,2.9551956932039047e-05,3.7024745372112496e-06,1.9902024480226525e-05,2.199384546367848e-05,0.00046402831614287263,9.163869179455257e-06,6.287912308901392e-05,0.0001816807182500213,9.773721428511332e-06,1.1995625773171999e-05,1.4604282746688568e-05,9.794702597076821e-06
2.367692307692303,3.0917830043364346e-05,3.7850004152536107e-06,2.2309961686535947e-05,2.2509282562784468e-05,0.0006855641370727028,8.914892818031225e-06,6.821672901461776e-06,8.557234074970665e-05,8.116909544971425e-06,1.4567915355456762e-05,1.556661841040826e-05,1.0928384330810559e-05
2.4299999999999953,2.3659049809291825e-05,3.7031738997939103e-06,1.1469698113586447e-05,1.6151992569746197e-05,0.00046144903572529946,1.057380280803007e-05,6.5496172557762595e-06,4.717682667134682e-05,5.716665385809468e-06,1.3418847411846475e-05,1.68744436924347e-05,1.6251303339487322e-05
2.4923076923076875,1.1399061592716938e-05,3.705971386125384e-06,6.215317524294051e-06,1.1871137558946051e-05,0.0002945943011998982,1.0352801282920154e-05,2.041886018015286e-05,3.0394700046324868e-05,6.208323794017663e-06,1.1536138477670951e-05,1.6259695824298128e-05,2.918828354623315e-05
2.5546153846153796,1.686185503118054e-05,3.750731185429383e-06,5.827166145877527e-06,1.4846964740418874e-05,0.00021916425044660553,1.011851174818427e-05,4.0270529794147096e-05,2.5080173444062363e-05,5.752333360931061e-06,1.1799801685204632e-05,1.4946275557055818e-05,2.9058200398187257e-05
2.616923076923072,2.8956791524592518e-05,3.8017853370320155e-06,6.318125183450244e-06,1.2511062782749605e-05,0.00019368333725490553,1.0392665543198138e-05,3.001913738624277e-05,2.016498814991034e-05,6.779710601042173e-06,1.1495574918285456e-05,1.695067523073135e-05,1.4614073883478795e-05
2.679230769230764,3.1797639900569646e-05,3.8122759245122023e-06,5.630642677327084e-06,1.889143200225855e-05,0.00019343785826796042,1.0575201588380879e-05,2.2191068394287563e-05,1.6779329106952902e-05,7.397955314777013e-06,1.1703987675559802e-05,1.7149296839609938e-05,6.951056691188266e-06
2.741538461538456,1.9518069249831647e-05,3.786399157471957e-06,5.227804500880969e-06,2.08468756393169e-05,0.00015260293503563578,9.926184497999202e-06,3.505951020912335e-05,5.936967557336933e-05,6.071946298410088e-06,1.1771826737572156e-05,1.4970054191583889e-05,5.376071313871004e-06
2.8038461538461483,8.6701127010258e-06,3.6311386054421745e-06,5.512448840031917e-06,1.859349958716431e-05,0.00011944571591608148,9.763930211429776e-06,2.7178988334715846e-05,0.00012478402171230604,6.025787745992754e-06,1.2427138171489105e-05,1.6075761035949653e-05,4.56410060868014e-06
2.8661538461538405,7.160868250603395e-06,3.548612720768081e-06,6.740545789796215e-06,2.906379543100949e-05,6.611161992182701e-05,9.552020558345475e-06,1.6707293812838013e-05,0.00013345343471300454,6.516746776696891e-06,1.1120012205623197e-05,1.640866203066101e-05,4.378767066981482e-06
2.9284615384615327,7.5196459898544765e-06,3.6178505240513914e-06,1.2853055670566012e-05,2.8123140356465608e-05,6.40617610886333e-05,1.031153837658394e-05,2.6357925807474204e-05,6.924970121175988e-05,6.299941516611322e-06,1.1492777396189998e-05,1.5848465196673563e-05,4.5508125493161815e-06
2.990769230769225,7.862338197384133e-06,3.5870781639838847e-06,1.220333920836462e-05,1.689122861776582e-05,4.525075669855975e-05,1.060667329492541e-05,2.4996948232569595e-05,2.0242618451504767e-05,5.82366930501621e-06,1.2698494444407515e-05,2.005378804265471e-05,4.9928155578508415e-06
3.053076923076917,1.0003115377799077e-05,3.6542178643609683e-06,6.791599898766283e-06,8.842158130069795e-06,1.6275082023990233e-05,9.710777966157973e-06,2.051187659546372e-05,3.3236947189863034e-05,6.078240637445257e-06,1.2391470236631601e-05,2.6424366166584907e-05,5.059955253490974e-06
3.115384615384609,1.270758629322207e-05,3.6738002866817017e-06,9.400956268734718e-06,6.4034485409555e-06,1.487144275268785e-05,1.0392665511460564e-05,2.563547466417996e-05,4.42296736665071e-05,5.950954956072489e-06,1.456162105384351e-05,3.1528381867929056e-05,5.061354004472681e-06
3.1776923076923014,1.3158681130676087e-05,3.5660970283402094e-06,8.416240721231816e-06,1.510433353809996e-05,1.876484577749693e-05,9.824076211846963e-06,3.217739885954529e-05,6.0099119964007744e-05,5.32082094058713e-06,1.4453917785554419e-05,2.482839961738629e-05,5.145278620470132e-06
3.2399999999999936,1.0319930822551745e-05,3.643027913824426e-06,5.42502734006689e-06,1.9669133470756607e-05,2.0813305887656952e-05,9.498168946464602e-06,2.7484613815668506e-05,0.00019268953014754212,6.782508069373231e-06,1.5016912074135766e-05,1.5754749390121486e-05,4.666908278731322e-06
3.3023076923076857,1.2421543194089206e-05,3.8143740179445255e-06,1.7848668702432253e-05,2.084407821432895e-05,8.380992355370154e-05,1.0303845311199211e-05,3.9111670473109444e-05,0.00023006955578826668,7.187444349436115e-06,1.5535146580702985e-05,1.7373795210554968e-05,4.696281893027769e-06
3.364615384615378,1.9726482014448267e-05,3.7493324498427683e-06,2.289253839601694e-05,2.351847610337169e-05,0.0005417725885126383,1.037867807032929e-05,5.295223912990347e-05,0.00019289514498552763,8.698786883580093e-06,1.3055873456598495e-05,1.6242910948231308e-05,5.895704598420555e-06
3.42692307692307,2.0341229853452583e-05,3.583581316017141e-06,1.7277281852064637e-05,3.3327166085683754e-05,0.0006344736257195412,1.0926985616540227e-05,2.6422268012519603e-05,0.00017758939280033322,9.84086111183539e-06,1.2049477398079489e-05,1.5232318617345678e-05,6.767821282712324e-06
3.4892307692307623,1.6362503506902235e-05,3.587777546461742e-06,1.1607474365386375e-05,3.404542104898193e-05,0.0005071991445087557,1.0673113637693632e-05,6.749637608531127e-06,8.593391579386397e-05,6.7622262958385216e-06,1.1110221006542057e-05,1.598903895683179e-05,1.0486381363013682e-05
3.5515384615384544,1.2887324862731475e-05,3.61505304435165e-06,5.950255591831896e-06,1.647720051731009e-05,0.00039832793089734274,9.88841840457629e-06,9.955558117743143e-06,4.7025762191310606e-05,5.569097940849588e-06,1.1589990092157148e-05,1.6281376396894605e-05,2.040137596258281e-05
3.6138461538461466,1.5012715856244085e-05,3.5584039153491178e-06,6.101319915785553e-06,1.4337122628423534e-05,0.00014771572406383862,1.0188448922576753e-05,3.9431283456300054e-05,3.487347714970686e-05,6.282457230829171e-06,1.2038287447542947e-05,1.6124017740063816e-05,2.6310368584840187e-05
3.6761538461538388,2.247361462721642e-05,3.544416477060016e-06,6.184545159963287e-06,1.5076358656547957e-05,0.00019176495985296545,1.0222718141505994e-05,5.1646511903887436e-05,2.543965057265988e-05,7.125200291587438e-06,1.1089939246033964e-05,1.598624148376378e-05,2.2633770797616155e-05
3.738461538461531,3.015761307286387e-05,3.6276417337906725e-06,6.718865226199947e-06,1.910124361828025e-05,0.0002058587014256356,9.814984371322074e-06,2.694539807658695e-05,2.043914198068819e-05,6.541924167654164e-06,1.2205437330218654e-05,1.6651344089761248e-05,1.4324533989669892e-05
3.800769230769223,2.8378411148111127e-05,3.691983950678453e-06,6.467790741263949e-06,2.1928104577284557e-05,0.00016671416036094419,1.0282864136475686e-05,1.960828818473222e-05,1.4488886323249517e-05,6.334910104754954e-06,1.1634050517272954e-05,1.4987538481629296e-05,7.172757558275104e-06
3.8630769230769153,1.6668129028829525e-05,3.6388316971169845e-06,5.654421301670709e-06,1.1523549758862828e-05,8.915522233579054e-05,1.0337415153571783e-05,1.8462717146168947e-05,7.119325503808227e-05,6.204127573757508e-06,1.1457109447121639e-05,1.560088754596715e-05,5.484473955400896e-06
3.9253846153846075,8.511355237317274e-06,3.533226537418462e-06,8.377075861905799e-06,1.0275171070617262e-05,8.01144427145554e-05,1.011431553621378e-05,1.2283067611207344e-05,0.00017593887479421254,6.591579573248888e-06,1.2237608410477682e-05,1.6768838535578348e-05,6.022990275056373e-06
3.9876923076922997,6.134889763131923e-06,3.5115460046123796e-06,1.1853653254926637e-05,2.3997545900063717e-05,7.970810782822468e-05,9.445716028722017e-06,1.1444520760051092e-05,0.0001376916282732547,7.294448269590248e-06,1.1906805503514307e-05,1.5871544506277738e-05,4.806083273933836e-06
4.049999999999992,6.530034861166693e-06,3.5674957568213966e-06,2.014890259805687e-05,2.7954591736308506e-05,4.2152539458584214e-05,1.0254189890209394e-05,1.5578507619314525e-05,3.6369433699453185e-05,5.88801150627205e-06,1.124939601453434e-05,1.578761985191098e-05,4.737544839864919e-06
4.1123076923076844,7.30843572351129e-06,3.584280677652411e-06,2.0717491930355437e-05,1.4963060467939233e-05,2.6439752262774617e-05,1.0703886021209049e-05,1.835641255662305e-05,1.786755170295843e-05,5.339004606004968e-06,1.1880928806344097e-05,1.5675720363361733e-05,5.162063555985697e-06
4.174615384615376,8.940769578439738e-06,3.6717021714594013e-06,9.210027743241274e-06,1.0685002937786218e-05,2.1565829955486984e-05,9.2547875546245e-06,2.0365008579877517e-05,4.178676781236845e-05,6.3551918716579316e-06,1.3779023902789807e-05,1.777943089464884e-05,4.899099743956488e-06
4.236923076923069,1.036958621725148e-05,3.7031739102152035e-06,6.4964650071885895e-06,1.1127705317193204e-05,2.061748181390044e-05,1.0436026573520014e-05,2.7962984238409186e-05,7.471459266478556e-05,6.165662098567281e-06,1.4107029308026616e-05,2.046501876501831e-05,5.3096309964454726e-06
4.2992307692307605,1.1151483937984115e-05,3.5164416175348378e-06,5.717364794103711e-06,1.4655336813499769e-05,1.7389181400062627e-05,1.0156277844212505e-05,2.953447264602005e-05,8.966646294060373e-05,4.915185250335222e-06,1.3183858544607575e-05,1.8710294801138615e-05,5.0005086447887e-06
4.361538461538453,9.817781839889978e-06,3.556305802968988e-06,6.236998049994705e-06,1.832004526557777e-05,2.7205564542735298e-05,1.0601078348078848e-05,2.5074578415266537e-05,0.00019609966605950527,6.9174868305784305e-06,1.1801899771768376e-05,1.6468108668021842e-05,4.862033026616549e-06
4.423846153846145,1.1894216806733008e-05,3.7926934841910527e-06,1.6670227104735128e-05,2.1320350452687838e-05,5.6337199025572694e-05,1.067241426634761e-05,5.7854835725379415e-05,0.00026426534118210537,8.070051623339698e-06,1.1891419322059467e-05,1.746261538452624e-05,4.939663280367767e-06
4.4861538461538375,2.1342030964888182e-05,3.7423387188558385e-06,2.0109737827311848e-05,2.495918212067257e-05,0.0005979629229967051,1.0009409748098126e-05,6.211960520043173e-05,0.0002071672260721395,9.597479716442573e-06,1.262436101233296e-05,1.4863050297719838e-05,7.285356414854505e-06
4.548461538461529,2.4312263228646695e-05,3.613654302133303e-06,1.877533633323954e-05,2.664117146480294e-05,0.0009631413263548438,1.0188448950051073e-05,1.938798606957448e-05,0.00014756885638576023,1.1237506686730588e-05,1.2992230624793895e-05,1.503719393127767e-05,9.752740249998244e-06
4.610769230769222,1.8045192195377998e-05,3.591274401060218e-06,1.3527250059771253e-05,1.866273753824051e-05,0.0006356597618027612,1.0047175853363418e-05,7.929477905814035e-06,7.343264426324936e-05,6.734950799132851e-06,1.15781007638797e-05,1.6620571733483304e-05,1.1559217721194652e-05
4.673076923076914,1.2063464820499803e-05,3.5486127131889587e-06,5.696383621748661e-06,1.2072556676419785e-05,0.0003350585564428835,1.0419241664294532e-05,1.1246598555914033e-05,3.276766868746487e-05,5.1145062433496e-06,1.1081546789644866e-05,1.644153251352994e-05,2.088254364428129e-05
4.735384615384606,1.5042089455145439e-05,3.5374227621787214e-06,6.08033875053593e-06,1.8038897782446383e-05,0.0001286389587666766,1.014858472672131e-05,3.32096716500511e-05,3.171161724277264e-05,5.978230462015214e-06,1.203828749301768e-05,1.6742961766643322e-05,2.842526895842449e-05
4.797692307692298,2.6147414890687058e-05,3.5626001476884995e-06,6.305536490695355e-06,1.7323440403297733e-05,0.0001975774395219787,1.0375181201046265e-05,3.410346885341179e-05,2.4580122574254422e-05,6.237697428683002e-06,1.1609572515662118e-05,1.593588669758598e-05,2.4295478297868082e-05
4.8599999999999905,3.0141527488562285e-05,3.618549898950126e-06,5.855840395696532e-06,2.5041008596341876e-05,0.00026844059125418575,1.0053470158766232e-05,1.593728548741069e-05,1.7668230680574954e-05,6.536329213939022e-06,1.1750845604296956e-05,1.655553014832852e-05,1.2989433106014303e-05
4.922307692307682,2.270160984991776e-05,3.6584141014373017e-06,5.561404854622273e-06,2.5287886838280353e-05,0.00020045955072968505,1.0092634995828576e-05,3.388316681570321e-05,1.9992243358994226e-05,6.015297187407972e-06,1.1532641585650556e-05,1.5007120902292096e-05,5.964243036279034e-06
4.984615384615375,1.1880229392128664e-05,3.548612726452423e-06,5.531331871111433e-06,1.4050380199392976e-05,0.00015624246567919425,1.041994105245673e-05,3.2745288785444396e-05,6.28000942261527e-05,5.362783250006942e-06,1.0939574250320069e-05,1.571838209149708e-05,5.487970831315655e-06
5.046923076923067,7.4860761590874365e-06,3.4905648590211057e-06,7.889613718248256e-06,1.4746954576120667e-05,0.00010130191165795092,9.543628137009818e-06,1.4304951546269725e-05,0.00016560076028682147,6.453803308422342e-06,1.1582996340090782e-05,1.688913055014988e-05,5.405444942378305e-06
5.109230769230759,6.936369910922243e-06,3.546514596071878e-06,1.901522080771656e-05,2.0162190742685956e-05,9.613355416557093e-05,9.056165953325036e-06,1.1014407058951292e-05,0.00013707338296905884,8.518348990804726e-06,1.2306146849994093e-05,1.6098140973497267e-05,5.345998336518202e-06
5.171538461538451,6.95944916652517e-06,3.5926731385416133e-06,2.3416367735507038e-05,1.9730678292736078e-05,7.455163901397555e-05,1.1099031069268979e-05,9.874431007972362e-06,3.387127738344967e-05,6.762226307207205e-06,1.1694196497321248e-05,1.6349215423142973e-05,4.73404797081874e-06
5.233846153846144,9.403054345350863e-06,3.5591032968795845e-06,1.6002326987300345e-05,1.1662724768513044e-05,3.986769148980329e-05,1.1236807329121727e-05,2.2516276372404796e-05,2.2894636394236538e-05,5.3411027247799815e-06,1.2636250360268757e-05,1.7979451105768854e-05,5.441112895473073e-06
5.296153846153835,1.4532946755233904e-05,3.600366238742936e-06,1.109623356588448e-05,7.750438720203572e-06,2.0811207699248748e-05,9.516352627514379e-06,3.089894711507668e-05,5.302427454433693e-05,5.93277131433941e-06,1.385945171511101e-05,2.0434945648872828e-05,5.388660004494265e-06
5.358461538461528,1.6742262385112857e-05,3.651420385608617e-06,7.93507285431853e-06,1.407485819721425e-05,1.8827089857372432e-05,1.0131799816785285e-05,3.790245670387549e-05,0.00010274261843411144,6.424429702178713e-06,1.503299767335875e-05,2.2230932562668688e-05,4.459894205410819e-06
5.42076923076922,1.2079550345352648e-05,3.754927408058014e-06,6.727257712431841e-06,1.5377088530973045e-05,2.1646957127074983e-05,9.884921546188252e-06,3.3433470712888416e-05,0.0001219361791091463,6.411840993555036e-06,1.644852627483336e-05,1.9353716813223323e-05,4.910989037891037e-06
5.483076923076912,1.051225806231552e-05,3.5814831934525653e-06,1.1883026888407736e-05,1.1763434270998611e-05,2.930507879383981e-05,1.0450013976518827e-05,1.673736682477056e-05,0.00014866756926371256,6.571997162533686e-06,1.3566414901807396e-05,1.6768838526578142e-05,5.021489781379766e-06
5.545384615384604,1.9288675234937123e-05,3.4325169977478254e-06,2.101052877208076e-05,1.58715444707506e-05,8.702983146354389e-05,1.0833969111464134e-05,5.3574680222112645e-05,0.00022530823138922074,7.5364309421862195e-06,1.0907403184508743e-05,1.7848668621430384e-05,6.5006612158432136e-06
5.607692307692297,2.3328946350886782e-05,3.626242997256668e-06,2.260719467486183e-05,2.3593308959372432e-05,0.0006097445359178739,9.521947572229313e-06,6.341624076805867e-05,0.0001873470275794394,9.57160295129711e-06,1.1999822020432778e-05,1.5217631787104817e-05,1.1081546730196124e-05
5.669999999999988,2.6652361315863498e-05,3.5493120871403033e-06,1.9699905881272646e-05,2.837980983467029e-05,0.0007518296181065882,9.888418436550712e-06,1.9197757030298135e-05,8.52639175254429e-05,8.775018407192193e-06,1.4207039505483484e-05,1.5380585445020264e-05,1.3251697564224212e-05
5.732307692307681,2.670131731387452e-05,3.50455227362545e-06,1.2831375081390205e-05,1.707376468900179e-05,0.00035874977677442154,1.0161872816638607e-05,5.831362394559392e-06,4.782024877580208e-05,5.586582228526519e-06,1.1825678385690707e-05,1.6434538803859292e-05,1.3630057732664606e-05
5.794615384615373,1.3608377178068547e-05,3.556305791600304e-06,6.320922658176187e-06,5.835558620977584e-06,0.00022704057531512943,1.0292655364689077e-05,1.1750845596717832e-05,2.7259416014165558e-05,4.743139813001563e-06,1.0375880593945415e-05,1.5961763473626434e-05,1.9194260018669715e-05
5.856923076923065,1.1194844981569456e-05,3.5325271530458243e-06,5.897103335901951e-06,1.0477988888150474e-05,0.00014268094672615917,1.130744391891388e-05,2.2185473420677225e-05,2.528229188953901e-05,5.5089519728805195e-06,1.1738956296388399e-05,1.5775730580950646e-05,2.7005544057582636e-05
5.919230769230757,2.527739632280183e-05,3.5514101957308715e-06,5.745339647944547e-06,1.5559624634183442e-05,0.0002423945860035322,9.782813287036636e-06,1.8833384268172418e-05,2.2405775548624737e-05,7.517547896185306e-06,1.1664123519494751e-05,1.6680717728452994e-05,2.3585615776985e-05
5.98153846153845,3.335234355574812e-05,3.5821825652722812e-06,8.26517638733056e-06,2.037410035692725e-05,0.00024348420710964546,9.222616427943347e-06,1.370698868588723e-05,2.1514076488434362e-05,8.278464461379069e-06,1.236978970761508e-05,1.6798911564327074e-05,1.1713079498084274e-05
6.043846153846141,2.288484519870811e-05,3.6332367254014266e-06,1.0142989771821932e-05,1.653105211403272e-05,0.00013547671712027903,1.1258487837532509e-05,3.4885366562302046e-05,2.9121843305546235e-05,6.688792265189628e-06,1.1880928789764767e-05,1.4398667422218145e-05,5.642531992341068e-06
6.106153846153834,1.2385175816120864e-05,3.5374227868108694e-06,7.921085433319301e-06,1.9201253714603202e-05,0.00012123890534899336,1.072766461855205e-05,4.048174001217338e-05,0.00010385881565350511,5.5579079969447776e-06,1.2406157041529772e-05,1.5573612114394563e-05,4.575989942168235e-06
6.168461538461526,9.526843173783088e-06,3.4297195166269984e-06,7.903601134984229e-06,2.056502880165567e-05,8.15873196761648e-05,1.0283563500242583e-05,3.919839278433794e-05,0.0001536296128193726,7.295147613225102e-06,1.0992726541303454e-05,1.7108733293487905e-05,4.294842463536952e-06
6.230769230769218,9.002314297390512e-06,3.510147266183594e-06,1.1342412475319938e-05,1.595756719841764e-05,7.150028000566522e-05,9.675809386304005e-06,3.266416172233259e-05,8.325742007144754e-05,9.142188634096253e-06,1.1230512981560044e-05,1.6243610313892987e-05,4.353589699235272e-06
6.29307692307691,1.040735232180623e-05,3.503153539933616e-06,1.725769947000799e-05,2.0154497564324934e-05,5.7524732466636884e-05,1.027936730035132e-05,1.653874523105022e-05,2.485567507311733e-05,7.829467711673033e-06,1.2420144460871067e-05,1.6044988679198014e-05,4.43891305839846e-06
6.355384615384603,1.3903512123647487e-05,3.4534981390758427e-06,1.4545535460541714e-05,1.569810022511812e-05,2.342965586876744e-05,1.0411548565751142e-05,2.7916126236722977e-05,3.659672944256916e-05,6.315327687171172e-06,1.3261488761173722e-05,1.7214338363658044e-05,4.627044084060117e-06
6.4176923076922945,1.4449721506556064e-05,3.617850541104417e-06,6.951756068692324e-06,9.221917052097221e-06,1.558899827950692e-05,9.642938909593113e-06,2.9721204898910022e-05,9.383891583117551e-05,6.306235864409852e-06,1.4963759833600912e-05,2.2580618488395506e-05,5.0200910585829204e-06
6.479999999999987,1.2011011894230705e-05,3.7416393714314228e-06,7.99871570672887e-06,1.414689354485669e-05,1.3909806497499252e-05,1.07227690146298e-05,2.99492001178218e-05,0.0001408136236221935,6.490870035236185e-06,1.7072365913624784e-05,2.4228338529042048e-05,5.240393170424795e-06
6.542307692307679,1.2204737908660945e-05,3.6423285524260034e-06,8.71766995966065e-06,2.0598598706556003e-05,1.7629765291834095e-05,1.0094033734494209e-05,2.788535385912875e-05,0.00021202226502291903,6.9608478961905956e-06,1.76906106491496e-05,1.779062080065804e-05,4.977429359579825e-06
6.6046153846153715,1.753884693656005e-05,3.6793952553182406e-06,1.1630553665042953e-05,2.0986750103209793e-05,4.182173659614818e-05,9.800297568318684e-06,4.73957299770215e-05,0.0002656878636685178,7.703580798098149e-06,1.4063668339758806e-05,1.588133573070157e-05,5.090028252870601e-06
6.666923076923063,2.8938607749987946e-05,3.6164518026756315e-06,1.4357404428485172e-05,3.1268215527073076e-05,0.00039357989438191984,1.0775221897082095e-05,8.182580557019037e-05,0.0002865116599044389,9.100226355703474e-06,1.2173965576541453e-05,1.6562523896368475e-05,6.087332505207618e-06
6.729230769230756,2.631736206618977e-05,3.526932208804586e-06,2.3338737504493188e-05,3.6367335577362304e-05,0.0007870311033457255,1.018705019291133e-05,4.645857181012995e-05,0.0002137727926651678,9.384870657195657e-06,1.133401996990339e-05,1.5605083841781683e-05,7.396556588190606e-06
6.7915384615384475,1.7131812425456396e-05,3.48706800631741e-06,1.9466315656776108e-05,2.38842476572169e-05,0.0006442557416174092,9.784911387811235e-06,9.021197318996126e-06,9.398368515363131e-05,6.47128759349395e-06,1.1782317371711316e-05,1.5414155291182398e-05,1.1184354450458992e-05
6.85384615384614,1.436789500128081e-05,3.4451056791340305e-06,6.39295796152813e-06,1.5465209455811645e-05,0.00025354467144964585,1.011011927047889e-05,1.1792108554213124e-05,5.910601190895666e-05,4.689987542860763e-06,1.2462106826660602e-05,1.594357976652342e-05,1.7633262097405122e-05
6.916153846153832,1.3284568136621526e-05,3.4919635841864267e-06,6.362185605960728e-06,1.4877037738140568e-05,0.00010220620025217879,1.0121309237121068e-05,2.2508583101436366e-05,3.01618092566495e-05,5.934869429324863e-06,1.1778121139608781e-05,1.6435238164073476e-05,2.365904979887053e-05
6.9784615384615245,2.4182879510448174e-05,3.5744894679131297e-06,5.732051572474953e-06,1.568551160199642e-05,0.0001689409601188648,1.0166768422692485e-05,3.039819677302565e-05,2.2121131198105105e-05,8.244195222317784e-06,1.1505366090365973e-05,1.5808601001291816e-05,2.203650717783982e-05
7.040769230769216,3.162629386253002e-05,3.640230427966647e-06,7.650428511614867e-06,2.3573027127099523e-05,0.00017623400948612772,9.99752043521577e-06,4.225814439185645e-05,2.4448640659831728e-05,7.3189262681220646e-06,1.2381679004865494e-05,1.6532450851514112e-05,1.2380280248909987e-05
7.103076923076909,2.5827801862021717e-05,3.6933827052128737e-06,7.1203046616119535e-06,1.854244548908923e-05,0.00018433553314309848,1.0620660732267122e-05,5.14625772386997e-05,2.3247119876164865e-05,6.1313929040333426e-06,1.3597886641984284e-05,1.5284072109030452e-05,5.805485604308084e-06
7.165384615384601,1.58253859005697e-05,3.6912845956749153e-06,5.593575941276185e-06,1.0133897928691719e-05,0.00017709913269925437,1.0710879692984084e-05,2.6920220822764425e-05,6.583047264238454e-05,5.927176321781266e-06,1.3371290144448267e-05,1.544492760340669e-05,4.247285169138119e-06
7.227692307692293,8.286157539316719e-06,3.5542077000627615e-06,8.341407902179299e-06,1.205297424723047e-05,9.314583785429894e-05,9.919890144042636e-06,1.7392678230739497e-05,0.00015821749212724018,6.23979553040499e-06,1.3744754722229876e-05,1.6266689540126813e-05,4.315124236124271e-06
7.289999999999985,6.820973540300202e-06,3.568195130772741e-06,1.2438328169395164e-05,1.5982045268003732e-05,7.197445378395173e-05,9.607270945366508e-06,2.2284784262420013e-05,0.00013192460740611977,8.68270136725376e-06,1.231034310625508e-05,1.5488988108813827e-05,5.434119195750024e-06
7.3523076923076776,8.958253839116044e-06,3.6731009060986253e-06,1.4728770920176732e-05,2.2116235641789216e-05,8.570592043615951e-05,1.1082945506520522e-05,1.4058772693677686e-05,3.856056548604177e-05,8.206429139316167e-06,1.0928384327494692e-05,1.6397472072071652e-05,5.320121593399562e-06
7.41461538461537,1.1136097725739091e-05,3.6500216291794158e-06,9.500966410058709e-06,1.725420257869814e-05,5.310260416138135e-05,1.1242402268389165e-05,2.0579016289682765e-05,2.0553139559353895e-05,6.087332461390815e-06,1.2960758855721603e-05,1.674715798287707e-05,4.878118575391e-06
7.476923076923062,1.2592889277603565e-05,3.675199025110487e-06,6.46429391437664e-06,1.1719373874304514e-05,2.3970270301276742e-05,1.0205233877040125e-05,3.297188528653313e-05,4.246026284799124e-05,6.199231955150708e-06,1.4932288059554822e-05,2.152946262962511e-05,4.708171227936949e-06
7.5392307692307545,1.3995129808582382e-05,3.7451362241351187e-06,7.020294511524602e-06,1.5226024275942033e-05,1.7053482865018546e-05,1.036888688403792e-05,3.713454641148436e-05,0.00011786443601522479,5.755130838736022e-06,1.488123394205824e-05,2.6321558445611495e-05,4.719361164973179e-06
7.601538461538446,1.2922293386215718e-05,3.7905953886271012e-06,6.018794020690166e-06,1.772138292939947e-05,2.0783932296571568e-05,9.604473441271465e-06,2.894839897938558e-05,0.00012502740259539752,5.625747075299614e-06,1.3974148717939746e-05,2.004679435477404e-05,5.238295064913246e-06
7.663846153846139,1.1781617937600685e-05,3.5171409907756395e-06,9.772322661897684e-06,1.7027606064819643e-05,2.9392500195513094e-05,1.0572404035732081e-05,1.325799190231199e-05,0.0001559018712181152,6.872727093328497e-06,1.2393568359906719e-05,1.4932288123029972e-05,4.941062044849787e-06
7.726153846153831,1.982229594167014e-05,3.5297296832936808e-06,1.250686656248945e-05,2.1999440502895595e-05,0.0001314840035268124,1.1614468092110048e-05,7.055612760898574e-05,0.00028017605066186965,7.447610733161507e-06,1.2048777994522198e-05,1.6882136793583414e-05,5.527135636640423e-06
7.788461538461523,2.320865437421086e-05,3.7710129703327766e-06,1.203758804943315e-05,2.7581127119447048e-05,0.0006179306869123972,9.085539568568872e-06,8.002981852068084e-05,0.00027673863933775543,9.607270940155861e-06,1.3592991036877796e-05,1.5050481942087875e-05,6.535629821039872e-06
7.850769230769215,2.5293481867549873e-05,3.6765977673288336e-06,9.347803958092982e-06,4.6348071077062514e-05,0.0007710896217209514,9.619859644516282e-06,2.1076969078611305e-05,0.00017335679450004212,9.439421701529227e-06,1.5655438644775662e-05,1.5737964394209786e-05,8.628150350394511e-06
7.913076923076908,2.0654548482686626e-05,3.56260014958328e-06,6.647529308641727e-06,4.3509320799965205e-05,0.00033802039558400074,1.035909566837745e-05,1.1837567742389865e-05,8.529259172670814e-05,6.2544823549615105e-06,1.2975445759148367e-05,1.666253399434936e-05,1.5742859999553124e-05
7.975384615384599,1.1922191700364237e-05,3.49196359366033e-06,6.406945408343745e-06,1.8449429042988185e-05,0.00010846487870873981,1.0159774694784573e-05,1.799623606852189e-05,3.9480939110584735e-05,6.620953195598152e-06,1.1320032577562718e-05,1.5755448806468546e-05,2.8189580583178515e-05
8.037692307692291,1.8808906178691133e-05,3.532527161572337e-06,6.360087515607423e-06,1.8271089198170407e-05,6.212869709780004e-05,1.1210930586003087e-05,4.693694195433788e-05,2.6088667665410035e-05,6.9014012962516824e-06,1.2324330489832391e-05,1.5451222054707614e-05,3.2577439611240304e-05
8.099999999999984,3.133605447137218e-05,3.6304392258064883e-06,7.481879924379579e-06,1.8069670125224018e-05,0.0001733917619598439,1.0094733123840646e-05,4.532139307566278e-05,2.387585513427363e-05,7.321024394239354e-06,1.097524220199375e-05,1.650797287406173e-05,2.017268134295591e-05
8.162307692307676,3.3597123564987896e-05,3.68009462192731e-06,6.784606194779978e-06,1.5879936930692415e-05,0.00021921880127327616,9.855547937102453e-06,3.7933229053284855e-05,2.0344726717524964e-05,7.737150657050051e-06,1.1542432790889734e-05,1.7221332112171694e-05,7.857442592277645e-06
8.224615384615369,2.3593308876949475e-05,3.617151154836999e-06,5.785203843563144e-06,1.6766041063220883e-05,0.00017135169543062526,1.0348605086818453e-05,4.670614936562363e-05,3.613724205446071e-05,6.594377072606979e-06,1.22487983633827e-05,1.4633656302246816e-05,4.9669387993371094e-06
8.28692307692306,1.2306146848809854e-05,3.5674957691374704e-06,5.4110399164623384e-06,1.3760840283557249e-05,0.00014726113289664037,1.0285661628491502e-05,3.236203297021234e-05,0.00011448716960984484,5.680997438399042e-06,1.6056878019791537e-05,1.6053381147903187e-05,4.427023740305458e-06
8.349230769230752,6.546120396440832e-06,3.6164518026756315e-06,7.86793316720491e-06,2.0488097983909863e-05,7.80093334109703e-05,9.391864392445844e-06,2.103150985064417e-05,0.00017517935741177362,5.621550845565555e-06,1.5204343746925512e-05,1.6816395830687725e-05,4.3661783839373434e-06
8.411538461538445,7.553215845490513e-06,3.6409298113918946e-06,1.7098942007957398e-05,2.9453345532696555e-05,0.00011301149516829885,1.0017102822956759e-05,1.575684753210756e-05,0.0001107070652407079,6.627946919479655e-06,1.3002721212037235e-05,1.549668117396171e-05,4.871124852693735e-06
8.473846153846138,7.167162592007041e-06,3.602464353017846e-06,1.469100478080539e-05,2.3349228106421074e-05,0.00011626077673625446,1.0963352937191454e-05,9.901706501125319e-06,3.1151420395758576e-05,6.174753945723902e-06,1.2916698459738048e-05,1.6069466685072106e-05,4.938264546912781e-06
8.536153846153828,7.0678517891072564e-06,3.66400907504764e-06,5.4956638919634315e-06,1.3260090022744938e-05,4.9849126434745963e-05,1.001920092823146e-05,1.6735968084210148e-05,2.435702291568494e-05,5.796393790073277e-06,1.1823580283258177e-05,1.5920500487709432e-05,4.6375346499871736e-06
8.598461538461521,1.1012308964571579e-05,3.7381424978851403e-06,5.960746184522729e-06,1.0438824042798464e-05,2.544384681778903e-05,1.0034587132897362e-05,3.301384760590054e-05,3.47007323789228e-05,5.9089926551791905e-06,1.3090842057295048e-05,2.134063219472182e-05,4.423526870311889e-06
8.660769230769214,1.4949772419707111e-05,3.7220569529002508e-06,8.655425861547884e-06,1.2936980207219525e-05,2.153715564692978e-05,1.0513656857350876e-05,3.705411869342849e-05,7.067152416979638e-05,5.971236734107303e-06,1.4805701752607092e-05,2.5715203003310685e-05,4.5214389317038695e-06
8.723076923076906,1.3478294065076094e-05,3.7500318200045514e-06,7.5825894375232865e-06,1.723671825194136e-05,2.3133821607027964e-05,9.41214617711239e-06,3.118429083173169e-05,9.755397877455607e-05,5.885213996729514e-06,1.9300564495239315e-05,1.8696307327559226e-05,5.466989656118434e-06
8.785384615384597,1.2725769937560472e-05,3.5423183803118264e-06,6.802090482930604e-06,1.6994735593082547e-05,3.3095674099096564e-05,1.0069555717961975e-05,2.0914714743251275e-05,0.00019667594838684483,7.535731538155233e-06,1.558899819732081e-05,1.5836575897054673e-05,5.7970931592876696e-06
8.84769230769229,1.7012919269158525e-05,3.559103309669354e-06,1.5892525654948032e-05,3.433006536965877e-05,0.00011029093907358364,1.0739553952987536e-05,6.428695847967939e-05,0.000269656797837096,7.386765348845377e-06,1.0470995181085148e-05,1.6956969561476852e-05,5.7607258310573195e-06
8.909999999999982,2.1114035692922547e-05,3.6835914803153476e-06,2.5483011592323614e-05,4.2953320186948454e-05,0.0008482604092579986,9.987729229029203e-06,6.384635422946871e-05,0.00019184398876793314,9.724066044469737e-06,1.2469100523778328e-05,1.4549731747592887e-05,6.9384680119336885e-06
8.972307692307675,2.5192072908216308e-05,3.5940718817073504e-06,3.088006409181314e-05,3.249701183894634e-05,0.0009486440458810345,1.0305244042285722e-05,1.3306248542951e-05,0.00012443923104541455,1.3117418182654698e-05,1.3485287809089641e-05,1.5894623777512608e-05,1.1189249998011519e-05
9.034615384615366,2.0793024111990615e-05,3.5982681216258547e-06,1.9806909859928132e-05,2.3642964329913714e-05,0.0003978656433086295,1.0187749559046703e-05,1.1164771987637322e-05,7.155483073783368e-05,8.470791691432093e-06,1.1323529451582695e-05,1.6908013513254143e-05,1.8084356911884926e-05
9.096923076923058,1.3458012331331777e-05,3.6227461417108013e-06,4.3535896942614725e-06,1.2288662543369355e-05,0.00034341255246725193,9.5618117687953e-06,1.5363800512583716e-05,4.199727872489234e-05,4.850143710655175e-06,1.027936727003483e-05,1.5816993427127577e-05,2.778744182331631e-05
9.159230769230751,1.6492586699238624e-05,3.6423285517154605e-06,6.0495664094162295e-06,1.6991238790827386e-05,0.0002156666920318647,1.0391966152193769e-05,4.2767986646670884e-05,3.273339940742896e-05,5.577490422818224e-06,1.1997723872525512e-05,1.530435389440754e-05,3.2638984310295883e-05
9.221538461538444,2.8018234483084826e-05,3.589176283943137e-06,8.715571847280519e-06,2.1772144624302806e-05,0.0001823835862884001,1.0396162381217285e-05,4.456187540048025e-05,2.1752562290563067e-05,7.022392645694709e-06,1.1755741239009391e-05,1.653175153630097e-05,2.244424105128928e-05
9.283846153846135,3.134864316270599e-05,3.6346354590932607e-06,6.104117400932788e-06,1.728637366487836e-05,0.0001863588159721985,1.0108720557629643e-05,3.899977100327116e-05,2.16623433452412e-05,7.289552673957663e-06,1.1733361319935891e-05,1.7170278033518117e-05,1.0447216527135575e-05
9.346153846153827,1.883827977806618e-05,3.66960405434232e-06,5.692187373303644e-06,1.0208031353897695e-05,0.00021718992419531938,1.1228414870127305e-05,3.876198465491143e-05,2.9879962408566977e-05,6.559408452252076e-06,1.2149487546745756e-05,1.5523257328690458e-05,5.9733348701721905e-06
9.40846153846152,9.247793805163459e-06,3.5709926322624597e-06,6.4705882228584715e-06,1.0551422910746548e-05,0.00021432319958118265,1.0201037632858363e-05,1.837040012802049e-05,0.00010657167947745924,5.829264250678534e-06,1.1459906949558747e-05,1.554144094176498e-05,4.550113186733521e-06
9.470769230769212,6.651725548323384e-06,3.5185397355993094e-06,9.58559040521815e-06,2.2477111484183374e-05,0.00015436954850542862,9.282762420070867e-06,1.0340212661693234e-05,0.0001711817475415008,5.555110502797334e-06,1.2132702646046785e-05,1.59191017196747e-05,5.457897817014631e-06
9.533076923076903,7.229406689409264e-06,3.5332265241549977e-06,2.2081966387806537e-05,2.4402482178231822e-05,0.0001265667200712528,9.678606874293412e-06,1.1958559079043123e-05,0.00010227963402869023,6.60836450118533e-06,1.3535642555240202e-05,1.573376820639775e-05,5.832061757142052e-06
9.595384615384596,8.704381872585525e-06,3.5003560460230194e-06,2.541866935625118e-05,2.0569924457210696e-05,6.417925538878913e-05,1.0740253327412574e-05,1.9055085094047778e-05,3.071361363235307e-05,6.221611866881934e-06,1.2938378992070436e-05,1.5957567197943943e-05,5.165560410347325e-06
9.657692307692288,1.1359896727469732e-05,3.5318277838314318e-06,1.3415350527642053e-05,1.3683209966804573e-05,1.8722184047940497e-05,1.0355598827989828e-05,2.4871061231361107e-05,3.4783258355730597e-05,5.178149083680713e-06,1.3220925192551173e-05,2.1630871537799596e-05,5.0697464556511324e-06
9.719999999999981,1.3051677228285523e-05,3.7017751547333926e-06,8.01130438456236e-06,6.730055182657679e-06,1.708005900174688e-05,9.795401986423258e-06,2.7816815354716103e-05,0.00010268876677888746,5.658617532352158e-06,1.3955965004678697e-05,2.6480315820028485e-05,4.508850233264639e-06
9.782307692307672,1.319924466661367e-05,3.726952550664464e-06,7.093029159695637e-06,2.1658147017689088e-05,2.4612992978253107e-05,1.0778019414203754e-05,3.351040155313475e-05,0.00014258373372086908,6.3272170145012295e-06,1.3409056240002808e-05,2.069161514105152e-05,4.516543323044668e-06
9.844615384615365,1.2898514784372613e-05,3.6241448775342633e-06,6.347498813615478e-06,2.7830802858848833e-05,3.08548865601684e-05,9.376478238702172e-06,2.6478917145785393e-05,0.000166861728037541,6.385264892590688e-06,2.0117430912591773e-05,1.6041491821046824e-05,4.58018616929697e-06
9.906923076923057,1.4259492385330456e-05,3.6122555539937667e-06,1.0183553310838533e-05,2.367723347968346e-05,4.241690183851195e-05,9.477887126507766e-06,3.9832723066268726e-05,0.00021892856250763277,7.4895730075278754e-06,2.0297169453205773e-05,1.7536748804758416e-05,4.7389435700040394e-06
9.96923076923075,2.1382594482351654e-05,3.477976167213607e-06,1.6195353627542393e-05,3.968305739666296e-05,0.0004589879453095117,1.1254291585534778e-05,7.581960008190928e-05,0.00026685161839547314,9.817082482517965e-06,1.3170570416557819e-05,1.742694742574713e-05,5.09702194383029e-06
10.03153846153844,3.518469775608916e-05,3.415032691123088e-06,2.052026906914269e-05,5.4430012045022144e-05,0.0007230441738123261,1.0464001438966383e-05,5.227384832030187e-05,0.00022193096559538125,1.0712278442307858e-05,1.2100531519839326e-05,1.4455316499351056e-05,6.1551715342981575e-06
10.093846153846133,3.5011953003779204e-05,3.5276315533868305e-06,1.42580936097166e-05,3.397688260496541e-05,0.0005105694145782991,9.996821076659519e-06,1.4929490586486811e-05,0.00011200439962687862,8.447712447434697e-06,1.202989495870573e-05,1.4759543233111572e-05,8.741448605557403e-06
10.156153846153826,1.8043094070681793e-05,3.5681951231936184e-06,7.447610677739173e-06,9.740850931905242e-06,0.0004334804560061893,1.0259784872346245e-05,1.4307749015074479e-05,5.9145876061469e-05,5.7460390427384786e-06,1.2124310183262802e-05,1.7482897134376194e-05,1.8758551499331587e-05
10.218461538461519,1.29418757988257e-05,3.6101574409030946e-06,6.211820651695158e-06,7.425230780929345e-06,0.00033577191653932914,1.0220620014915008e-05,2.8454642492666456e-05,3.4487424033831834e-05,5.4830752060771225e-06,1.1588591384755394e-05,1.6648546603429772e-05,2.798256658328076e-05
10.28076923076921,2.295408297191178e-05,3.6996770414058727e-06,5.508951954406408e-06,7.661618462861952e-06,0.00024690063832887667,9.980036128117338e-06,3.6550570873572495e-05,3.505321576445415e-05,8.906500301245994e-06,1.1930584178306465e-05,1.5500178117614876e-05,2.543265678009258e-05
10.343076923076902,3.0263917437641415e-05,3.705272018805772e-06,7.1419851887336945e-06,1.2573306936284704e-05,0.00027866750667987126,1.004997334466869e-05,2.844764879933829e-05,2.467243964782521e-05,1.0901808139607282e-05,1.1392767233549723e-05,1.6995435039035556e-05,1.5012016468081886e-05
10.405384615384595,2.4554945211008315e-05,3.73604438361023e-06,7.623852397387054e-06,1.667512279155403e-05,0.00024978694690365916,1.0409450437265378e-05,3.612884973189049e-05,1.2971249491045e-05,7.83016706572918e-06,1.1080847386798116e-05,1.5439332665086642e-05,6.606266379568145e-06
10.467692307692287,1.3370590830182512e-05,3.7891966438034314e-06,6.740545758532335e-06,1.3425141811277777e-05,0.0001459994658839984,9.800996894900511e-06,3.193681490927247e-05,6.870349155031855e-05,5.3872612513809296e-06,1.180399786993765e-05,1.503999135934464e-05,5.053660894560607e-06
10.529999999999978,7.692390850640625e-06,3.7528292959147316e-06,8.804392050384044e-06,1.666952774665257e-05,7.422083620696185e-05,9.980036098037697e-06,1.4253197984004373e-05,0.0001649573379777299,6.750336968982159e-06,1.3759441539917816e-05,1.654294144183647e-05,5.231301348137171e-06
10.59230769230767,7.598675016851076e-06,3.6325373315548857e-06,9.626853356318559e-06,2.3176483311478553e-05,8.805581031244477e-05,1.0212227583868602e-05,1.2645342185635399e-05,0.0001365152842135823,8.111314565913593e-06,1.216837060340481e-05,1.6517764091380135e-05,4.887210416863278e-06
10.654615384615363,8.605071091002022e-06,3.6241448735078545e-06,1.6019111942947954e-05,2.4843785779182782e-05,9.197648884651244e-05,1.0571005316014255e-05,1.4951870530666156e-05,4.307920691672962e-05,6.905597522906722e-06,1.1096932963520582e-05,1.6389079643630566e-05,4.8074820256260866e-06
10.716923076923056,9.684201856193416e-06,3.6703034140828095e-06,1.650027974922826e-05,1.845922028778091e-05,4.167626718304026e-05,1.020943005632565e-05,2.394439358965883e-05,2.115949495523258e-05,5.941163767886337e-06,1.3953167526163194e-05,1.576803742319536e-05,5.360685145916477e-06
10.779230769230747,1.2001220754598308e-05,3.726253171028778e-06,7.172058187165931e-06,1.0109419921396542e-05,2.214490983405426e-05,9.32682281131747e-06,3.497418683006496e-05,4.4656990038305366e-05,6.46639201988819e-06,1.5767338039770116e-05,2.2038605339721093e-05,5.313827236363977e-06
10.84153846153844,1.3308346700569018e-05,3.7996872151779825e-06,7.584687559851015e-06,1.008913813933532e-05,2.0667836526655492e-05,1.0242300565484659e-05,3.7948615327347096e-05,0.00011502778423870079,6.252384239265515e-06,1.5029500791996498e-05,2.372129399172233e-05,5.294944190836759e-06
10.903846153846132,1.204318302967522e-05,3.885709938108069e-06,7.925281643158163e-06,1.663875537450584e-05,2.3540856060340804e-05,9.695391793229646e-06,2.842806649307287e-05,0.00014346564195903965,5.65512067893792e-06,1.559529263417403e-05,1.6665331510997324e-05,5.159965413762772e-06
10.966153846153825,1.0249993620684942e-05,3.614353671110848e-06,8.959652621361632e-06,1.9142506552090784e-05,3.309917087364056e-05,1.0571005358883667e-05,1.6057577339267938e-05,0.00018649519421150748,7.770021099654893e-06,1.4227321287544707e-05,1.6049184890931655e-05,5.352992042636136e-06
11.028461538461517,1.887674522957165e-05,3.5507108530434075e-06,1.800812544061614e-05,2.0802115886908724e-05,0.0001438377076063091,1.1285063997235057e-05,6.144820834421693e-05,0.00034169419623140127,9.481384009291104e-06,1.1492777370847308e-05,1.7987144265892614e-05,5.432021066080021e-06
11.090769230769208,1.990202435943426e-05,3.7822029308169173e-06,1.8841077295424687e-05,3.142697276388162e-05,0.0010241461308898654,9.204432754235843e-06,6.638297608153228e-05,0.0003345801848468,1.3704191169476114e-05,1.215997811006749e-05,1.5200846874563467e-05,6.80278987725084e-06
11.1530769230769,1.7402469404714792e-05,3.6640090769424206e-06,9.956257477720479e-06,2.8705017576176792e-05,0.0012205724049541308,9.43872233468331e-06,2.071399509731009e-05,0.00018529577019611073,1.334611277457043e-05,1.4707789756111348e-05,1.4853958437773448e-05,1.0436026585836088e-05
11.215384615384593,2.0166386886207495e-05,3.6052618317701975e-06,6.216716238564383e-06,1.7521362588723834e-05,0.00043315874516357175,1.0594084595065093e-05,1.399932605584316e-05,8.884400186772722e-05,7.4084458996518755e-06,1.3831476846822474e-05,1.659749244235324e-05,1.389721779716524e-05
11.277692307692286,1.2434831262216525e-05,3.5653976292830216e-06,6.419534096124835e-06,1.5827484047766424e-05,0.00022147567463453772,1.0494074422714068e-05,2.497876469812847e-05,4.197629771690951e-05,6.023689656823686e-06,1.138437478166073e-05,1.6500979133600897e-05,2.498785631127968e-05
11.339999999999977,1.2813191409340637e-05,3.5514101957308715e-06,5.97543299818426e-06,1.592329799251502e-05,0.0001972753110498123,1.0330421442006355e-05,4.764330781673228e-05,3.089545037440189e-05,5.641832611757991e-06,1.1801899778636956e-05,1.5284771538877825e-05,3.158642961788398e-05
11.40230769230767,3.1374520013827126e-05,3.5786857011999017e-06,6.5230411266270495e-06,1.2090040930938055e-05,0.00026506892006186906,1.0352101946864423e-05,3.51588209611009e-05,1.8108834998050345e-05,5.7341496888814925e-06,1.1444520766682824e-05,1.5952671626469814e-05,2.195607947375796e-05
11.464615384615362,3.185149167658589e-05,3.5814831922683273e-06,5.807583728530593e-06,1.4511266215085546e-05,0.000310819028531976,1.015977466281015e-05,1.8678123595824066e-05,1.942155592189465e-05,6.146079703957715e-06,1.1539635319005962e-05,1.649958039138255e-05,1.0171664000561501e-05
11.526923076923055,1.4681913021045526e-05,3.6129549281819587e-06,5.861435383517725e-06,1.32803718010166e-05,0.00020334236210241367,1.053044177628711e-05,3.0259021791797143e-05,3.542737972471362e-05,6.576193410031313e-06,1.2266282661244077e-05,1.5456816972421922e-05,4.939663295762861e-06
11.589230769230745,8.463797979866665e-06,3.58847690241267e-06,5.602667801933118e-06,1.0040182106034005e-05,0.0001186463343003652,1.080109869064927e-05,2.4324152402262674e-05,0.00010831661184388016,5.434119211145117e-06,1.3416049968858109e-05,1.6026805002411493e-05,4.759225349223091e-06
11.651538461538438,7.068551157137411e-06,3.5877775265665454e-06,6.383166747051898e-06,1.9727880799062327e-05,8.577375971394e-05,9.723366668623612e-06,9.087637655369463e-06,0.00016773314463378597,5.550214916638652e-06,1.3413252449367975e-05,1.661637550493348e-05,4.5326288791613935e-06
11.71384615384613,7.735052506537461e-06,3.579385066624733e-06,1.387413849964029e-05,2.665445945903381e-05,7.653505748758485e-05,9.605872180410795e-06,8.38616773156294e-06,9.909049826598941e-05,7.581890090809414e-06,1.3786717020281002e-05,1.651986220233918e-05,5.048765298928023e-06
11.776153846153823,9.488377682487225e-06,3.5563057934950847e-06,1.6214236633752914e-05,2.571030744178415e-05,6.0392855976942884e-05,1.0167467768458968e-05,8.032984955974598e-06,3.403702845711602e-05,6.425828434923157e-06,1.3809796319700733e-05,1.559599199888832e-05,5.490768294909761e-06
11.838461538461514,1.1961356507583787e-05,3.6717021544063754e-06,9.161771027995276e-06,1.7947979436172546e-05,3.287747004042292e-05,1.0062562005922853e-05,1.743114366495509e-05,4.714465532226579e-05,5.674003710017436e-06,1.4204941367286968e-05,1.6276480797946156e-05,4.9431601685986e-06
11.900769230769207,1.271388067820567e-05,3.7150632133868083e-06,6.859438983279157e-06,8.116909551840005e-06,2.3956282884303922e-05,1.0427634114051898e-05,2.9133732543821603e-05,0.00011257718490256252,6.242593028105148e-06,1.5341420623353013e-05,2.3403079760697666e-05,4.03957176118297e-06
11.9630769230769,1.284536257510164e-05,3.6619109512988265e-06,7.943465335576624e-06,9.856247298264027e-06,1.825010802913122e-05,9.780015806152658e-06,3.2672554008665124e-05,0.00015471923359792564,5.664212520173351e-06,1.4395170555777289e-05,2.8529475287086825e-05,4.089227149487821e-06
12.025384615384592,1.1514457925443367e-05,3.8017853152420383e-06,9.714974202997458e-06,1.461547262688138e-05,2.3861867658088915e-05,9.413544941594409e-06,2.4443745038619604e-05,0.0002166381196448223,6.604867651086958e-06,1.5305752677600517e-05,2.0262900243039894e-05,5.073243318065579e-06
12.087692307692283,9.59118538664446e-06,3.7269525284007917e-06,1.2402660193089332e-05,1.5246306036213279e-05,3.592323430628615e-05,1.1718674538248781e-05,1.2606177374152595e-05,0.0002574247866505175,7.223811742089007e-06,1.4997329697763462e-05,1.5673622275376905e-05,5.775412641876679e-06
12.149999999999975,1.568131532536654e-05,3.4884667338512068e-06,1.5731670134044863e-05,2.068042523504232e-05,0.00012981670128150806,1.1580898307765134e-05,6.804468330301461e-05,0.000326884299144344,9.129599963841883e-06,1.1403257805871666e-05,1.7753554091844612e-05,5.621550835854805e-06
12.212307692307668,2.147001600008025e-05,3.489865471806297e-06,1.678981970769655e-05,3.2942511588155794e-05,0.0005971880169340693,9.084140845535179e-06,6.997704772402358e-05,0.0002964441392945124,1.1889321215363679e-05,1.1578100773116754e-05,1.5703695245861128e-05,5.525736888737735e-06
12.27461538461536,2.2520472486557235e-05,3.5528089379492184e-06,1.2184456166626962e-05,3.5790353672145635e-05,0.0006402937994323566,9.463200375373997e-06,1.3930088255165173e-05,0.00011355001133826667,9.615663400808217e-06,1.3496477712493516e-05,1.535121186388248e-05,1.0110119281847574e-05
12.336923076923052,1.9366305467845755e-05,3.5947712556586946e-06,8.037181171024107e-06,2.0075468526196498e-05,0.0004907471190056374,1.1058467515094133e-05,1.0516454282812523e-05,5.150663763444641e-05,6.52443988992483e-06,1.2301251272598772e-05,1.599113710237058e-05,1.547570001794914e-05
12.399230769230744,1.4516861173774487e-05,3.545815227804875e-06,6.3104320979334714e-06,7.5874850343401095e-06,0.00039444781360439645,1.007934693528038e-05,4.2605032677537715e-05,3.7169515036102514e-05,5.8964039647927775e-06,1.1028394552662728e-05,1.6512868453825526e-05,2.0941990287563308e-05
12.461538461538437,1.770319929998247e-05,3.5458152249627044e-06,5.4194323823253395e-06,1.1994226987610546e-05,7.702182035724074e-05,1.0059065151561224e-05,5.855420738569706e-05,3.505881075772284e-05,5.436217292498213e-06,1.202569874863002e-05,1.5568017081098635e-05,2.603691413772443e-05
12.52384615384613,2.596138199540595e-05,3.53322653173412e-06,6.172655858449616e-06,1.5975750859098525e-05,0.00023128226560729104,1.0841662223034139e-05,2.3431754004358634e-05,3.784440879973279e-05,6.638437492038444e-06,1.1809592850416569e-05,1.565543856448433e-05,2.7772055634519196e-05
12.58615384615382,3.080033580360464e-05,3.494761080939194e-06,6.676203572908435e-06,1.3306248536792964e-05,0.0002757007696554107,1.0184252702790294e-05,1.3103430752181567e-05,3.089125398503256e-05,7.257381553197699e-06,1.1586493220268798e-05,1.7359108388366924e-05,2.0244017162222386e-05
12.648461538461513,2.9844993770448505e-05,3.5870781630364944e-06,5.482375831415235e-06,1.3619567113920538e-05,0.00020675599566288838,9.9716436804916e-06,4.900498454555683e-05,3.085069044033162e-05,6.804188612126912e-06,1.175923807276528e-05,1.4539940521511122e-05,8.449810545603971e-06
12.710769230769206,1.813680978462647e-05,3.6031637241270196e-06,6.232102443940827e-06,1.850817623013275e-05,0.00019977976169229805,1.0804595531747433e-05,4.764120945566219e-05,6.59955241954909e-05,6.030683362231078e-06,1.3589494182042472e-05,1.4797309337903168e-05,5.074642055310126e-06
12.773076923076898,6.582487742908446e-06,3.5556064470180597e-06,1.118015821622483e-05,2.1551842449222627e-05,0.0001098272550220732,1.0703885996340053e-05,1.7484995294599532e-05,0.0001590931058958726,5.533429978044069e-06,1.5679217220565533e-05,1.7161186159124022e-05,4.566198732902649e-06
12.835384615384589,7.525940353758642e-06,3.5605020438348826e-06,3.2398400426340385e-05,2.92064672545204e-05,9.752740240524342e-05,9.208629009786288e-06,1.4912705707577818e-05,0.00013470740840612432,7.76162865439763e-06,1.436579694266508e-05,1.6868149344162476e-05,4.7934945875738325e-06
12.897692307692282,9.231008872726913e-06,3.617850527840953e-06,3.5527389997014325e-05,3.272500695246094e-05,6.129574513048889e-05,1.027447168174452e-05,1.2861448076980272e-05,4.147135096701504e-05,6.751735720200713e-06,1.2162775652058145e-05,1.6570916307519687e-05,4.8893085361119875e-06
12.959999999999974,1.0422738489050213e-05,3.6318379642352737e-06,1.4564418503226761e-05,1.6787022175653495e-05,2.616769662111551e-05,1.0391966132772267e-05,2.2655451259367966e-05,4.706982267066451e-05,5.127794323319298e-06,1.2223620936424595e-05,1.640656393391282e-05,4.57948681050387e-06
13.022307692307667,1.2092139061081752e-05,3.6968795560217887e-06,7.524541608461277e-06,7.458101269719464e-06,1.8373896866089958e-05,9.670913757039064e-06,3.098496986808641e-05,0.00012052344802289856,6.013199069580347e-06,1.3469202172681587e-05,2.2604397155371696e-05,4.980226864622258e-06
13.084615384615358,1.30866458071921e-05,3.7696142356935526e-06,8.032984953132427e-06,1.1786513544838802e-05,1.8351516963122095e-05,1.0351402568176127e-05,3.6481333114105986e-05,0.00017919654882045204,5.613158372833974e-06,1.4328030814425575e-05,2.4287785170429287e-05,5.018692318259355e-06
13.14692307692305,1.3840568635004046e-05,3.881513725190189e-06,8.392462072019196e-06,1.810813558407176e-05,2.2646359500081796e-05,9.984232360693567e-06,3.080802877235556e-05,0.0002336307569909953,6.0069047146763905e-06,1.6731072419891765e-05,1.671708502494577e-05,4.668307035397371e-06
13.209230769230743,1.2271178206428128e-05,3.7115663578409415e-06,9.461801605444483e-06,2.3794028680867996e-05,3.472590992406784e-05,1.0603176451221922e-05,3.143816291526491e-05,0.0002741740420977597,8.1532768952286e-06,1.640236765183545e-05,1.5575710161404762e-05,4.84804559188016e-06
13.271538461538436,2.0319549354515704e-05,3.4171308051611503e-06,1.3438429856430882e-05,3.205081263312574e-05,0.00014472521083348512,1.0736057095546888e-05,6.171117199779511e-05,0.00032659615752947955,8.295249385052254e-06,1.2428536889075304e-05,1.7594097276211566e-05,7.0468706548846665e-06
13.333846153846126,2.8411281543109606e-05,3.567495752084445e-06,3.0610805911142806e-05,3.427341623141918e-05,0.0005773580276724033,9.599577832849112e-06,5.066809060494393e-05,0.0002856409422975048,9.809389383737729e-06,1.3590193569730976e-05,1.5016212716053208e-05,1.1591388849533739e-05
13.396153846153819,2.6576129874437506e-05,3.6584140938581792e-06,3.1809529248031745e-05,3.302084112135617e-05,0.0008077150247172445,1.0021998432800198e-05,1.3974148686439018e-05,0.0001419291218193545,1.009473307339211e-05,1.576384126309449e-05,1.5137903430210524e-05,1.668071768889945e-05
13.458461538461512,1.8299064185593274e-05,3.5975687391479977e-06,1.1982337699360339e-05,2.3912222383870586e-05,0.0004060699751564793,1.0555619143322777e-05,1.2483087925119207e-05,7.43390301875498e-05,6.617456317551765e-06,1.2356501629066468e-05,1.688143739405253e-05,1.94726100476809e-05
13.520769230769204,1.1585094500077275e-05,3.503153539933616e-06,5.946059365413703e-06,1.7087752129185675e-05,0.00011394165980315544,1.0075850076181799e-05,5.7193230067298376e-05,3.0410086258096194e-05,5.104715048294868e-06,1.0877330196260951e-05,1.6249904616453628e-05,2.687056530679873e-05
13.583076923076895,2.04286513448911e-05,3.514343489996463e-06,5.649525690879879e-06,2.896378521223634e-05,0.00010793335627875914,1.0575201594775762e-05,5.905076163680671e-05,2.1623877898235833e-05,5.057857137794978e-06,1.1628455550294347e-05,1.5207840599866055e-05,2.8309173213614258e-05
13.645384615384588,3.296698959734575e-05,3.6472241428479415e-06,7.01609825573731e-06,3.6325373093622676e-05,0.0001493438622539145,1.0350003846800366e-05,2.3698214625274736e-05,2.070280519651154e-05,6.162165271443124e-06,1.2221522868098115e-05,1.6877241138975783e-05,1.673247121705875e-05
13.70769230769228,3.419508659187424e-05,3.6444266631482e-06,6.287352806092865e-06,2.917359676975669e-05,0.00015759994692767046,1.0614366370257737e-05,2.943586112304312e-05,2.6229940792177332e-05,6.309732734640268e-06,1.1969749018684677e-05,1.6412858239315636e-05,7.787505407463868e-06
13.769999999999973,2.188474358722677e-05,3.6136543011859127e-06,5.643930722480188e-06,1.4900117014822929e-05,0.00019501633982438687,1.0957757940133206e-05,3.316700991694195e-05,5.144229561864222e-05,5.43202107697501e-06,1.0890618262967185e-05,1.5273581543813936e-05,4.880216690850148e-06
13.832307692307664,9.169464184329474e-06,3.552109570629606e-06,7.435721383330929e-06,1.6887032414321843e-05,0.00018290321920725697,8.496668470314717e-06,2.6378207533165702e-05,0.0001319854534166609,5.8453498124796015e-06,1.3823084352537762e-05,1.606946670923056e-05,4.543119469720599e-06
13.894615384615356,5.794995036012551e-06,3.4646880881912995e-06,9.524045709952134e-06,2.5522176476755475e-05,8.546813378345064e-05,9.071552146622252e-06,1.9843976494134572e-05,0.00014426222670114915,7.162966350193755e-06,1.4136402931560118e-05,1.5905813705785475e-05,4.64872461876098e-06
13.956923076923049,7.3147300336510545e-06,3.561201409259714e-06,1.4069962630713918e-05,2.1407072525410817e-05,6.956301982015134e-05,1.144522015602926e-05,1.6212138556426227e-05,5.7391851912550845e-05,6.884616377552296e-06,1.20438823903631e-05,1.62750820417538e-05,4.862033009800371e-06
14.019230769230742,8.461000477429556e-06,3.572391348901268e-06,1.058569211475439e-05,1.593518728597587e-05,3.691354495363915e-05,1.0896213245814579e-05,1.7999033579248667e-05,1.812422118282105e-05,5.694285507710599e-06,1.3390173201581016e-05,1.5481295006717723e-05,4.7669184316608455e-06
14.081538461538432,1.4751150769617046e-05,3.5786857011999017e-06,4.664110774399432e-06,1.0978739105619676e-05,1.9170481463959278e-05,9.758335273346575e-06,2.9733793653008433e-05,3.93179850947926e-05,5.560006106719584e-06,1.3779023956080512e-05,1.7602489765048784e-05,4.9767299908391275e-06
14.143846153846125,1.7058378463256457e-05,3.675898403798783e-06,6.160067135851932e-06,7.606368096920354e-06,2.7041212058520613e-05,1.0102426220726101e-05,2.83301544013644e-05,8.686198179574944e-05,5.662813773691747e-06,1.2850258125259491e-05,2.17168943324945e-05,5.16346228280895e-06
14.206153846153818,1.3109025737634283e-05,3.6318379718143962e-06,7.073446746375112e-06,2.5943897747045715e-05,2.8708514491645095e-05,1.036189316489337e-05,3.0359032112414753e-05,0.00010972864344983198,5.297741667457482e-06,1.2671918310521354e-05,1.964255743776751e-05,5.378868810623772e-06
14.26846153846151,1.0123407359922491e-05,3.598967487050686e-06,6.9405661022869936e-06,3.9906157084838396e-05,2.1861664200173438e-05,1.0751443264211958e-05,2.5321456756680998e-05,0.0001809386840854188,6.330014496095752e-06,1.3034192934450553e-05,1.5920500491262146e-05,6.2880521949656065e-06
14.330769230769201,1.1108822263613168e-05,3.770313593539261e-06,1.240126143287057e-05,3.671422393409784e-05,5.643021537503993e-05,1.0129701697773423e-05,4.198119297527114e-05,0.0002529949647123904,9.85834541822328e-06,1.3404160618553836e-05,1.6583505051907346e-05,6.018094662370762e-06
14.393076923076894,1.728147807161425e-05,3.844447022061104e-06,1.773746853620158e-05,3.505531386191289e-05,0.00043737805539289333,9.630350206653777e-06,7.007915578682855e-05,0.0003279585329226601,1.1307443859228291e-05,1.2865644282319029e-05,1.610933090034905e-05,5.280956753968742e-06
14.455384615384586,2.611664252801423e-05,3.72765193030015e-06,2.4036710691177632e-05,3.4722412872885874e-05,0.0009794618681586561,1.0762633196984931e-05,4.309319435904513e-05,0.0002717143501511051,9.470893422047766e-06,1.3519556962175253e-05,1.4258793010905416e-05,6.232102446309303e-06
14.517692307692279,2.7737087116719294e-05,3.68708835291424e-06,1.9010325318665384e-05,3.2815225994416625e-05,0.0009123305636227504,1.022971187083499e-05,1.4453917739605988e-05,9.625454568151781e-05,6.655222409079897e-06,1.1906805526488522e-05,1.5434437096928376e-05,8.239299597552948e-06
14.57999999999997,1.642754509632027e-05,3.6675059334356776e-06,7.829467707646623e-06,1.7712291181955683e-05,0.0005261703032492922,9.584891050688309e-06,1.1378779797155403e-05,4.47199333173387e-05,5.466290288561974e-06,1.1127005961715971e-05,1.652265963988005e-05,1.9832087091486982e-05
14.642307692307662,1.3934983822612897e-05,3.6157524107238715e-06,6.233501168158758e-06,1.4858854033406033e-05,0.00027667219809330846,1.0213626310691856e-05,4.555708157099048e-05,3.0870272846783565e-05,6.070547561639235e-06,1.2334821125629484e-05,1.654993513587518e-05,2.672229845614993e-05
14.704615384615355,2.1023816796864972e-05,3.6080593181016713e-06,5.1865415303590606e-06,1.6719183128088845e-05,0.0002137154435573052,1.0864042131923194e-05,5.132270305570804e-05,2.6241829965082766e-05,6.456600803043481e-06,1.1341013721259211e-05,1.6126815213131827e-05,2.3284186605110334e-05
14.766923076923048,3.544206665679894e-05,3.6584141014373017e-06,6.987424019655464e-06,1.2703390051171937e-05,0.00031534746023377617,1.0349304476875431e-05,2.3272297345518684e-05,2.1767248991958846e-05,6.06775004901768e-06,1.2045281166924345e-05,1.6734569349334076e-05,1.696885891059689e-05
14.82923076923074,3.192072945121064e-05,3.761221771962179e-06,6.56850029514544e-06,1.8785127531846988e-05,0.0002911093317379709,1.0162572201721787e-05,4.406881822471102e-05,1.870959533742204e-05,6.1236998080952765e-06,1.190680556580522e-05,1.633452862937664e-05,7.721065095722679e-06
14.891538461538431,1.7030403665785342e-05,3.815772778163288e-06,5.441812256160953e-06,1.978383050295444e-05,0.00020856946662964522,1.0252091807908907e-05,3.721217670644705e-05,6.29679433899355e-05,5.673304357382373e-06,1.1894916250080693e-05,1.5115523514689737e-05,4.388558292352703e-06
14.953846153846124,1.1406754703813249e-05,3.6472241485322835e-06,7.881920636521044e-06,2.4226939759349384e-05,0.00014400975271466147,9.965349341930126e-06,1.2853755022253684e-05,0.000132945690763601,6.033480839088649e-06,1.3866445449887502e-05,1.6270186407988754e-05,4.357086562597109e-06
15.016153846153816,6.267071034452935e-06,3.603863093341412e-06,1.1885824395581798e-05,2.7549655411007733e-05,8.903912675085242e-05,9.574400467945072e-06,1.1881628165137196e-05,0.00014410836449769705,7.0825386131900815e-06,1.1614468136637395e-05,1.5881335697306063e-05,4.441011178120865e-06
15.078461538461509,7.253185338385038e-06,3.7542280532913234e-06,1.861867706836051e-05,1.7707395561927795e-05,7.514470652931019e-05,1.050246692481475e-05,9.022596098162694e-06,7.885417451210704e-05,6.367081225751766e-06,1.117316450584364e-05,1.600652328406227e-05,4.885112287903818e-06
15.1407692307692,7.07344678569181e-06,3.752129931437291e-06,1.6705195775775413e-05,2.0242618446294122e-05,5.295573611950506e-05,1.046260273345941e-05,1.609534349545546e-05,3.219278505000034e-05,5.850944789168958e-06,1.3552427474886979e-05,1.6296762566507066e-05,5.577490414528559e-06
15.203076923076893,7.799394714188186e-06,3.708069499452904e-06,9.068754651053722e-06,1.9971961549458683e-05,2.3894738171984877e-05,9.645736383608513e-06,1.897465728788461e-05,5.063591968337278e-05,6.337008221635187e-06,1.3676915658085894e-05,1.669750260120395e-05,5.480977107671e-06
15.265384615384585,1.479311306695763e-05,3.7157625977594457e-06,7.86723378401651e-06,1.4636453808473486e-05,2.0509778489478474e-05,1.059828080940406e-05,2.2606495208303082e-05,6.521782241530142e-05,5.858637891265062e-06,1.4297957848441456e-05,2.2126026772421405e-05,5.628544553578271e-06
15.327692307692278,1.7281478099088567e-05,3.6877877192864616e-06,8.300144964342356e-06,2.0497889166411673e-05,2.533824164530074e-05,1.0324826428605623e-05,3.282781474472548e-05,5.920602228854932e-05,5.042470969603604e-06,1.5567317693173284e-05,2.440318150102409e-05,5.473983367210167e-06
15.389999999999969,1.1818684675783213e-05,3.84654512212516e-06,8.324622971163839e-06,2.9320464868476392e-05,2.8893848080476423e-05,9.923387011904575e-06,3.094650450374085e-05,0.00013930228171830095,6.265672309761309e-06,1.7017115509787573e-05,1.8725680949908488e-05,4.544518197491243e-06
15.452307692307661,1.132562755567316e-05,3.7912947486044385e-06,8.321126108986239e-06,3.303692684847685e-05,4.6356463664428325e-05,9.825474966144536e-06,1.931525139748184e-05,0.00018323751982691762,6.567101566901101e-06,1.3819587506465799e-05,1.6982846304121798e-05,4.370374608697603e-06
15.514615384615354,1.8234721940520635e-05,3.589875660736652e-06,1.14060553009665e-05,3.1871073988061954e-05,0.00016020510714014334,1.0551422920457299e-05,5.719672676320897e-05,0.00024410874577801184,9.514953887190814e-06,1.0887121421632173e-05,1.7610882241569926e-05,4.83685561860625e-06
15.576923076923046,2.5101154644839122e-05,3.6213473957028934e-06,1.9282380924086815e-05,3.691704179544786e-05,0.0007098267449293872,1.0224816267623283e-05,6.0029182669533536e-05,0.000259387921994166,1.229285880768316e-05,1.1520052954476038e-05,1.5400867241055494e-05,5.697782342887573e-06
15.639230769230737,2.7260814926203616e-05,3.660512221396554e-06,1.8617977668119088e-05,3.611346351372428e-05,0.0008164431834870811,9.888418423287249e-06,1.784167494160253e-05,0.00011104066492938122,9.47229217042415e-06,1.2436929428124206e-05,1.57652399697857e-05,7.69588767894902e-06
15.70153846153843,2.223862571947658e-05,3.754927424400497e-06,9.369484504162528e-06,2.0989547523697637e-05,0.000433802167190341,1.103189139873469e-05,1.4576307851162559e-05,3.829480423386637e-05,5.9761323827937455e-06,1.1810292254447556e-05,1.6342221742130883e-05,1.315658301024314e-05
15.763846153846123,1.341604992859402e-05,3.666806552852601e-06,6.2635741831703245e-06,1.2079550370221644e-05,0.000348448030646864,1.0251392419746707e-05,3.601904842867043e-05,3.2323567572234425e-05,5.154370448205251e-06,1.153124286095893e-05,1.60589761189082e-05,2.027548894076858e-05
15.826153846153815,1.8319345905126738e-05,3.5486126999254947e-06,6.522341765465474e-06,1.1038185709111304e-05,0.00024059230381207424,1.0200338238064433e-05,4.0732115234239545e-05,3.306350289307147e-05,5.471885257435361e-06,1.1754342460553365e-05,1.5561722769537785e-05,2.6364919537276896e-05
15.888461538461506,3.08436968208999e-05,3.6318379632878835e-06,6.691589762416091e-06,7.690292727365508e-06,0.00021356787687144181,9.852051078003872e-06,2.084617635726242e-05,2.293310182868898e-05,5.885214011650911e-06,1.2177462441561222e-05,1.6142900816854913e-05,2.0497189831777027e-05
15.950769230769199,3.322505786300667e-05,3.7052720140688204e-06,5.797093169708963e-06,1.1610271878718473e-05,0.00022453612553903214,1.0275870435805245e-05,2.3101650461635852e-05,2.4644464748983333e-05,6.72515956499827e-06,1.1827776503044636e-05,1.6989840122505485e-05,9.217720817626211e-06
16.01307692307689,2.529278237422735e-05,3.6891864586626372e-06,5.887312131373316e-06,1.4883332080728451e-05,0.00016883395628563373,1.0914396924022185e-05,2.6968477345453343e-05,3.81486355055453e-05,6.6272475388965786e-06,1.1458508151918067e-05,1.4533646160922823e-05,5.751633992664059e-06
16.075384615384582,1.2670519489906459e-05,3.6101574409030946e-06,7.022392610878114e-06,1.3473398433916373e-05,0.0001138759186064912,9.369484510083719e-06,2.535572595476765e-05,0.00010744169765454595,5.546018698036429e-06,1.293907834352126e-05,1.5599488811327926e-05,4.306731781629954e-06
16.137692307692276,6.858739597959129e-06,3.6339360879840873e-06,9.835266145093631e-06,1.270968440939176e-05,6.696135649022494e-05,9.86044354126155e-06,1.993349604939946e-05,0.00017331203448141727,5.832761139383061e-06,1.1189250035433436e-05,1.658909999188533e-05,4.530530767018112e-06
16.199999999999967,6.850347134227756e-06,3.694781434167756e-06,1.5177068222508676e-05,1.2453714309638524e-05,6.690960326570424e-05,1.0621360149561572e-05,1.2767732227321934e-05,0.00010782075769431761,7.234302282910221e-06,1.1017903949076905e-05,1.581699349415544e-05,5.30263727943255e-06
16.262307692307658,6.7601281728002505e-06,3.660512207185699e-06,1.6312848051806363e-05,1.534421810044743e-05,6.152234194919022e-05,1.0732560264870017e-05,9.570204224473854e-06,3.09702831356636e-05,6.4356196247672415e-06,1.1938976654353912e-05,1.6031001325937193e-05,4.8977009943958665e-06
16.324615384615353,8.530937679770052e-06,3.648622882224117e-06,1.1115116585832159e-05,1.4030098406673612e-05,3.102833090551371e-05,1.020733196549865e-05,1.709404645874694e-05,3.1834007283511787e-05,5.545319294005443e-06,1.2585895609144397e-05,1.6428244510535706e-05,4.537524496583956e-06
16.386923076923043,1.0012207228982106e-05,3.778706062007586e-06,8.02948808977059e-06,8.344904731198237e-06,2.6211057648358367e-05,1.0143689144825885e-05,2.4349329918749164e-05,5.678060057713689e-05,6.136987889012365e-06,1.4239909993799908e-05,2.2543551783134792e-05,4.872523608886088e-06
16.449230769230738,1.3291561744210867e-05,3.815772779110679e-06,7.341306208748696e-06,1.111231912152751e-05,2.7592317002718877e-05,9.454108540770298e-06,2.9414180752003934e-05,8.461280224025813e-05,6.138386621756809e-06,1.611562523938422e-05,2.5931308938472362e-05,5.115905012094876e-06
16.51153846153843,1.2720174960160572e-05,3.8017853256633316e-06,6.687393515865855e-06,1.9489395015170885e-05,2.5883751639573423e-05,8.928180912448625e-06,2.907008970633266e-05,8.590733955955443e-05,5.20472521804057e-06,1.7708094881404197e-05,2.2077770085360272e-05,5.52084128623657e-06
16.57384615384612,1.0467498273195966e-05,3.5695938843597712e-06,1.597784896247845e-05,1.738848204387485e-05,2.2479908909171325e-05,1.1245899141935448e-05,1.6627565344625357e-05,0.00015564240546387016,7.843455172699502e-06,1.443433532557492e-05,1.8811004291781804e-05,6.127196662456905e-06
16.636153846153814,1.5105732272976031e-05,3.542318392154205e-06,1.9674029127495864e-05,1.9322245144574405e-05,6.365612503576775e-05,1.1074553034973178e-05,3.004711222824123e-05,0.0002575408818631312,9.66741690717754e-06,1.1831273410460122e-05,1.761228100463086e-05,7.430126399772992e-06
16.698461538461505,2.4762658576804596e-05,3.794791610782037e-06,1.8591401555549207e-05,2.435282674871549e-05,0.000582250130187371,9.384870712381143e-06,5.460625353682265e-05,0.00021021229049793532,1.0650034331168476e-05,1.2536240214918356e-05,1.6203746103352993e-05,1.0203835087689109e-05
16.760769230769196,2.8323160599560045e-05,3.7269525307692673e-06,2.482140588189926e-05,2.1536456335506195e-05,0.0008197959697788804,1.0119910504376624e-05,3.490914514590789e-05,0.00011561385737005973,1.0962653546660779e-05,1.3068462146748061e-05,1.5292464615868086e-05,1.3311144143320537e-05
16.82307692307689,2.2256109991284725e-05,3.6633096887802217e-06,1.693598842867535e-05,1.7880839704057885e-05,0.0004838618026428302,9.970244929273047e-06,1.0178657711890083e-05,6.527796845242998e-05,7.3615879773096065e-06,1.1831273373748749e-05,1.583168029810622e-05,1.7567521149904528e-05
16.88538461538458,1.3225820851658909e-05,3.626942352260206e-06,6.887413851804543e-06,1.339926498597303e-05,0.0002975421527646442,1.0144388532277541e-05,1.857251841883567e-05,3.728071516538496e-05,5.660016292334073e-06,1.1747348762961944e-05,1.6235917236902726e-05,2.1720391130486406e-05
16.947692307692275,1.4465807088962871e-05,3.6479235177466764e-06,6.383866112003034e-06,1.550996919779853e-05,0.00015276868584308546,1.0387070560113898e-05,2.947852274151804e-05,3.0805231352104555e-05,5.800590011754518e-06,1.1845260824353923e-05,1.620864174280238e-05,2.2584814659154517e-05
17.009999999999966,2.6178886557441198e-05,3.708069505137246e-06,5.916685744248677e-06,1.6110729607277108e-05,0.00010024236410070368,9.629650862782077e-06,2.3836690211235615e-05,2.6409679257947497e-05,6.734950791080033e-06,1.1306744529330596e-05,1.55931945168201e-05,1.978313109229172e-05
17.072307692307657,3.2186490517697545e-05,3.698278290661013e-06,7.22590982675797e-06,1.5586900134441823e-05,0.00013654605721740153,1.024230059769593e-05,2.131125862471587e-05,2.4159100665599453e-05,6.489471272412099e-06,1.2196345534457957e-05,1.6617074853305287e-05,1.2253693956646809e-05
17.13461538461535,2.715870646667895e-05,3.703173890320007e-06,6.253782967983549e-06,1.8506777523204693e-05,0.00015002085424953293,1.0643740028134137e-05,3.719539181498514e-05,1.9743266892173022e-05,5.899900820338644e-06,1.1908903684817082e-05,1.5546336574345786e-05,6.566402162159572e-06
17.196923076923042,1.5287569004129863e-05,3.6052618412441005e-06,5.945359995015073e-06,1.5761743065212385e-05,0.00011209811568330489,9.951361889667017e-06,2.9074286072490925e-05,8.116979506477643e-05,5.5858828548120226e-06,1.2354403511712537e-05,1.5491086186614213e-05,5.270466160567366e-06
17.259230769230733,7.656023488777918e-06,3.5108466363453774e-06,7.893110547030347e-06,1.1628455564031507e-05,6.7541835362069e-05,9.616362762680334e-06,1.2442524420445504e-05,0.00017951126679349727,5.646028831544451e-06,1.644083318031638e-05,1.7035299201021796e-05,5.500559524070544e-06
17.321538461538427,6.311830820256622e-06,3.59826810836239e-06,1.037797868240394e-05,1.3923094578416339e-05,4.7465667113992066e-05,9.789806984864905e-06,1.223061470791246e-05,0.00013155254208333151,6.316726430573757e-06,1.5451222040023065e-05,1.5861753322117996e-05,5.739045318146433e-06
17.383846153846118,6.410442252520928e-06,3.589176274469234e-06,1.058848964253419e-05,1.5601586985525272e-05,5.19472419270528e-05,1.0728363974029282e-05,1.730735483202276e-05,3.7396111485321625e-05,6.087332462338205e-06,1.162216120912755e-05,1.5621169378713754e-05,4.9984105286190095e-06
17.446153846153813,8.952658886821988e-06,3.5898756493679683e-06,6.8335622472659455e-06,1.1282965846011923e-05,4.235885409826778e-05,1.1175262564696216e-05,2.6960784285516108e-05,2.2521171931089157e-05,5.278159254847499e-06,1.1357798653695757e-05,1.7053482860992138e-05,5.1823453254939976e-06
17.508461538461503,1.2732064329175804e-05,3.6283411039524557e-06,5.533429978517764e-06,1.1420042724097357e-05,3.078494955654302e-05,9.446415424463339e-06,2.592151776781293e-05,4.930921133000273e-05,5.831362386032879e-06,1.1979540232213519e-05,1.7156989899073474e-05,4.782304638695223e-06
17.570769230769194,1.556452029305433e-05,3.6975789195518397e-06,6.585285225213511e-06,1.335730272439643e-05,2.365415430626664e-05,9.513555138103887e-06,3.2573243294346334e-05,7.589723045953178e-05,6.681798545097687e-06,1.2183057438382623e-05,2.123013146828612e-05,5.048065920950269e-06
17.63307692307689,1.6299560088128828e-05,3.6339360794575746e-06,7.063655566241778e-06,1.6545738935036523e-05,3.1620698797259667e-05,1.0077248823373945e-05,3.318099736565235e-05,7.954165699407175e-05,6.039775206782376e-06,1.1586493265269837e-05,2.3554144092467293e-05,5.53342995838572e-06
17.69538461538458,1.2236209708523422e-05,3.5619007784741066e-06,6.826568511778911e-06,2.1191666031228352e-05,2.9047010446940173e-05,9.845057360754103e-06,1.8205348289512813e-05,0.00016436217277089328,5.843951070498103e-06,1.387273977731714e-05,1.7445131106086365e-05,4.661313297541861e-06
17.75769230769227,1.3169871077659916e-05,3.7353450001849825e-06,9.603074684842266e-06,2.1603596051041524e-05,3.5579842869519025e-05,1.0438824048719653e-05,3.185638722745428e-05,0.00019847053708398714,6.734950777106027e-06,1.4789616248123139e-05,1.5854060123624928e-05,4.065448502643676e-06
17.819999999999965,2.3039406421077047e-05,3.753528672708247e-06,1.7940985689316828e-05,2.710625363467519e-05,0.0003208032604218166,1.098223597798172e-05,6.285114819419846e-05,0.0002188110674078795,7.949759673664403e-06,1.2924391560649913e-05,1.6862554313471872e-05,4.442409913944326e-06
17.882307692307656,2.9521184638525712e-05,3.6052618478758327e-06,2.0683922019533915e-05,2.843016451047712e-05,0.0006395965268798894,1.0705984100430518e-05,4.601586929169344e-05,0.0001842732889220618,7.060158711880149e-06,1.3217428335347374e-05,1.4211935113905837e-05,5.5271356423247655e-06
17.94461538461535,2.3024719608126056e-05,3.5598026746204897e-06,1.1460606261219179e-05,2.3036608956061853e-05,0.0006906667562001682,9.657625727754749e-06,1.5154688317409181e-05,6.758030047890884e-05,6.271966638138338e-06,1.3523053802799722e-05,1.592119988581923e-05,8.809987022573296e-06
18.00692307692304,1.3384578173969431e-05,3.5793850742038557e-06,6.0698481682663895e-06,1.54715037768464e-05,0.000442617748272293,9.821978108467041e-06,1.3920996406587468e-05,4.7017369782291024e-05,6.277561603459011e-06,1.2371188405542929e-05,1.7522761377601153e-05,1.8967663504554366e-05
18.06923076923073,1.4793113043272873e-05,3.5346252644785636e-06,6.597174551596178e-06,1.0536736124322487e-05,0.00017351834901120357,1.009403373330997e-05,4.564450282581826e-05,4.1006968367914474e-05,5.44530912047018e-06,1.2097734073061399e-05,1.5558225904518015e-05,2.7942702371793377e-05
18.131538461538426,2.4610894844083e-05,3.531128405143136e-06,5.546718053039967e-06,9.97933676340305e-06,0.00013372129418603624,1.078990870055918e-05,5.908573022684512e-05,3.418949169121295e-05,6.118804190435867e-06,1.1582996392434098e-05,1.543723457947029e-05,2.5330548639838448e-05
18.193846153846117,3.153957170217344e-05,3.56889448861845e-06,6.821672894830044e-06,1.0373782451248796e-05,0.0001953317570418278,1.0239503072284607e-05,2.698106617036918e-05,2.6455138514099492e-05,7.047570002782777e-06,1.3626560868592226e-05,1.7082157112705922e-05,1.532323693306618e-05
18.256153846153808,2.893021542860197e-05,3.5744894707553005e-06,5.89500520694249e-06,1.1665522277581886e-05,0.00020964789831433943,1.0170964662137294e-05,2.8664454153689196e-05,1.6558327585158848e-05,6.504857458603889e-06,1.3633554604316107e-05,1.5873642573183135e-05,7.067851764475108e-06
18.318461538461502,1.8503980090400773e-05,3.635334831149824e-06,5.61175960503609e-06,1.3968553750487444e-05,0.00011932332557762493,1.0650733758173677e-05,2.779863180914314e-05,5.8282851192833125e-05,5.232000715930478e-06,1.1904707454846175e-05,1.5232318612371879e-05,4.350792206982609e-06
18.380769230769193,8.753337945677231e-06,3.5269321926989504e-06,7.70497952136869e-06,1.454623484112479e-05,8.842507816003339e-05,9.88072535292872e-06,1.3043284751290684e-05,0.00014693102921370382,5.612459008593381e-06,1.257260756138597e-05,1.663246104802359e-05,4.5102489934834015e-06
18.443076923076887,7.67001091546149e-06,3.4430075658065106e-06,1.1210930527738582e-05,1.7109432576016086e-05,7.391101429140197e-05,9.277167439591949e-06,1.346640473940397e-05,0.00014096119180256512,6.2523842229230315e-06,1.099552403142449e-05,1.6026105679856073e-05,5.768418940969392e-06
18.50538461538458,8.857544279550212e-06,3.5255334381645297e-06,1.8699804184526176e-05,1.8407466727647184e-05,7.864226499047315e-05,1.0373083082981793e-05,9.714974220050484e-06,5.984175159620501e-05,5.8698278233274925e-06,1.1209531795704682e-05,1.6031001300357655e-05,5.6348389136928745e-06
18.56769230769227,1.0354899423248298e-05,3.494061695619166e-06,1.928937467307416e-05,9.919190767485968e-06,5.674982865973751e-05,1.0669616721988481e-05,1.7838178044845185e-05,2.429827572806668e-05,5.514546942464449e-06,1.4199346424703662e-05,1.6097441628441325e-05,4.7053737340263526e-06
18.629999999999963,1.352025637402221e-05,3.557005174078161e-06,1.0673113620403758e-05,6.127196650140832e-06,2.200573485708901e-05,9.554818038992607e-06,3.190604242485999e-05,6.529195593666752e-05,6.451005815932831e-06,1.7014318060878016e-05,2.1935797649537867e-05,5.021489818564836e-06
18.692307692307654,1.3755245305209959e-05,3.657015362061126e-06,6.091528711730613e-06,9.683502462583722e-06,1.8654344945427207e-05,1.0062561997870034e-05,3.939281801000523e-05,0.00010852292676730713,6.5636046824598304e-06,1.5195251869926096e-05,2.6327852724250532e-05,5.110310038721385e-06
18.75461538461535,1.2241804608947859e-05,3.747933691518786e-06,7.28046082206409e-06,2.0760852944571676e-05,1.5048383789443657e-05,9.480684642682036e-06,2.9795338391617558e-05,0.00013643905244222764,5.201927727682687e-06,1.4299356567685588e-05,1.9399875341245358e-05,5.403346829287633e-06
18.81692307692304,1.4032895895847257e-05,3.5059510381074686e-06,1.2639047837363174e-05,3.06275907950256e-05,2.610615181358374e-05,1.0263281733576454e-05,1.3529348200809939e-05,0.000215932452933032,7.356692349702598e-06,1.2820884529910851e-05,1.5455418212440007e-05,5.750235257314292e-06
18.87923076923073,3.0133834340754598e-05,3.438111978937286e-06,1.7696904946499597e-05,3.929280783481204e-05,8.391343033693488e-05,1.0915096265999107e-05,6.626128485294202e-05,0.0003774747585737259,1.147599247772746e-05,1.1210231152603e-05,1.7552135011792796e-05,5.820172432891013e-06
18.941538461538425,3.051499194436739e-05,3.6626103299871224e-06,1.7475903474206687e-05,3.889766280498937e-05,0.00047610996486255883,1.0077948184772367e-05,7.146810812036127e-05,0.00033850855744030166,1.2915999083655076e-05,1.5335825622978897e-05,1.5219729946380766e-05,9.891215872907348e-06
19.003846153846116,2.1290976815417176e-05,3.5479133401850048e-06,1.454413679056188e-05,2.9779252853027552e-05,0.0006344638335993598,9.512156379779905e-06,1.3441227298708706e-05,0.0001446489790569198,1.123470916960893e-05,1.807946133164743e-05,1.5445627011700934e-05,1.5172172552505951e-05
19.066153846153806,2.0893034274157193e-05,3.4968591914245433e-06,9.032387314770555e-06,2.0158693807085608e-05,0.00043644439324452833,1.0273772309924803e-05,7.10491848844678e-06,6.517725877728254e-05,7.051066857381253e-06,1.3663627557984151e-05,1.6407962704079182e-05,1.847740381464291e-05
19.1284615384615,1.4490984461446033e-05,3.4926629562429904e-06,5.964942414730482e-06,1.1091337958646363e-05,0.0003335751894364118,9.945067520789053e-06,1.5430940190223435e-05,3.246903681765427e-05,4.662012669835273e-06,1.0714376571504166e-05,1.6068767337173995e-05,2.8311271211597008e-05
19.19076923076919,1.8344523263399044e-05,3.496859188582372e-06,6.036278346973253e-06,1.1450115741003704e-05,0.00018680851257097213,1.0519251833329691e-05,4.917493195790712e-05,3.408528518799396e-05,5.4627934197526425e-06,1.2463505561062978e-05,1.5672922866845814e-05,3.0347142698872175e-05
19.253076923076886,3.2879568267200435e-05,3.5751888466014257e-06,6.820274150716917e-06,1.2136199520777306e-05,0.00015720759910090956,1.0794104975767974e-05,4.990717429980881e-05,2.740698352639015e-05,8.076345963795954e-06,1.1423539649986954e-05,1.700172939725538e-05,1.9735573852130982e-05
19.315384615384577,4.372822426409092e-05,3.640929802865382e-06,6.313229570054091e-06,2.1651153303518338e-05,0.00018489503026538994,9.435924842193798e-06,2.0139111451555892e-05,2.4192670574763044e-05,8.522545182169475e-06,1.1176661374889817e-05,1.6742262397665777e-05,1.0696192841900635e-05
19.377692307692268,3.2866979521865386e-05,3.6591134621251815e-06,5.74953587625752e-06,2.571869992588442e-05,0.000293627068697333,1.0840962879399285e-05,1.9400574742197327e-05,3.9544581893598735e-05,6.765023762511646e-06,1.1719373873357123e-05,1.4379784348269216e-05,5.5131481746665635e-06
19.439999999999962,1.2888723581975606e-05,3.5632995358506984e-06,6.262175431478075e-06,2.3025419043184078e-05,0.00027109330832928433,1.0152081625610283e-05,2.0741270492644996e-05,0.00011520472488986873,6.221611857408031e-06,1.687724112831764e-05,1.6582106295714992e-05,4.638234022517433e-06
19.502307692307653,6.928676790588876e-06,3.517140993380963e-06,1.0130401059645541e-05,2.050628165311726e-05,0.0001161236999282759,9.019099229353363e-06,1.3350308961671923e-05,0.00015695722370831315,5.946758732970162e-06,1.8927099993722626e-05,1.6713588208479754e-05,4.5494138153875005e-06
19.564615384615344,7.614760544782939e-06,3.568894499039743e-06,2.1141311223023725e-05,1.4442028449461001e-05,0.00012370838753952284,1.019404390802947e-05,8.447712432276451e-06,8.123763405076072e-05,7.683299020063334e-06,1.5131609049963875e-05,1.609324532410028e-05,5.0956232255335484e-06
19.62692307692304,7.66231782070766e-06,3.6010656089047187e-06,2.3907326843660335e-05,1.4153887248842996e-05,0.00010358466229760665,1.0720670942987454e-05,1.0682205436059652e-05,2.5978166843287908e-05,7.449009455721504e-06,1.1570407693521171e-05,1.6041491786703924e-05,5.599170924834122e-06
19.68923076923073,8.49457032335484e-06,3.6269423607867186e-06,1.1718674502721644e-05,1.3218127688456132e-05,3.3911141616963884e-05,1.130254830528088e-05,2.128188492089104e-05,4.0576155243599035e-05,5.6446301051948925e-06,1.1219323050681851e-05,1.634641797210179e-05,4.85503928378724e-06
19.751538461538424,9.520548826695101e-06,3.693382698581142e-06,5.914587629973767e-06,9.897510202468613e-06,2.31576002498457e-05,9.183451586854592e-06,2.91987742106888e-05,5.90185905053886e-05,5.9348694174824836e-06,1.343423361035434e-05,2.3283487142814843e-05,4.699079380069785e-06
19.813846153846114,1.0587090897947368e-05,3.7766079619435307e-06,8.449810549393532e-06,9.784911370521361e-06,2.7982566555806444e-05,1.0840962818766305e-05,3.301594571472795e-05,9.031827781882384e-05,6.571997149980765e-06,1.3992332315382327e-05,2.687825844750099e-05,5.0774395409310575e-06
19.876153846153805,1.2813191423551492e-05,3.944457183990835e-06,7.942765971809725e-06,1.6866051223018985e-05,2.6855179096685334e-05,1.0774522504419792e-05,2.5242427637787537e-05,0.00013346952010072263,6.0013097325395394e-06,1.663735657189136e-05,2.0505582365378436e-05,4.983024344795695e-06
19.9384615384615,1.62485059116572e-05,3.6227461270262514e-06,8.988326855548697e-06,2.2606495214697967e-05,4.469475581553676e-05,1.098922966207283e-05,1.0668917347563441e-05,0.00021817114233731635,6.243991774113056e-06,1.445391770028929e-05,1.7692708749924197e-05,4.785801494004242e-06
20.00076923076919,2.556064193441898e-05,3.4968591980562755e-06,1.8384387430595932e-05,2.2970868032482863e-05,0.00020759593951117001,1.2764934780307158e-05,6.763345275852354e-05,0.0003414480170296959,7.93297474785959e-06,1.0966849760762898e-05,1.805428397384882e-05,5.276760532761197e-06
20.06307692307688,2.9969481921199304e-05,3.810177785605144e-06,2.249599446718283e-05,1.7918605911167638e-05,0.0011273978916994073,9.840161764647822e-06,7.43369318577436e-05,0.0003179694050231774,1.1623559922924187e-05,1.215718064292067e-05,1.513230844641574e-05,6.2845553593149365e-06
20.125384615384576,3.012264435279614e-05,3.7339462560718555e-06,1.6952073957080907e-05,2.2184773921433513e-05,0.0014725973415221935,9.842959244110716e-06,1.734931717886449e-05,0.00017123350095099948,1.2078151639371982e-05,1.5103634181912184e-05,1.6268787635690767e-05,8.084738444580353e-06
20.187692307692267,2.192250959491086e-05,3.691983946888892e-06,1.1028394507661687e-05,2.0661542077486198e-05,0.0006931117595560939,9.596780364518053e-06,1.1938277274955075e-05,7.172617694521932e-05,7.576994499676933e-06,1.2750247953382161e-05,1.7091248927651274e-05,1.3020205495687756e-05
20.24999999999996,1.1778121134634981e-05,3.6758983943248796e-06,6.5069555982214904e-06,1.2328526755093587e-05,0.00024361568877158865,1.0316433972927068e-05,2.340377921659827e-05,3.4575544877668565e-05,6.290849681060233e-06,1.0640942507459765e-05,1.5308550142378863e-05,2.1729483004406803e-05
20.31230769230765,1.6322639306783535e-05,3.684990224428475e-06,6.032082104212577e-06,1.556871640720677e-05,0.00012519385323628285,1.0912298807615646e-05,3.508398816573314e-05,2.368772403661031e-05,5.976831722875886e-06,1.3148889900094219e-05,1.5180565102212995e-05,2.8803629152444425e-05
20.374615384615343,2.556204054637116e-05,3.740939979479663e-06,7.086035440077391e-06,2.378843372573177e-05,0.0001495921391300688,1.0155578487551036e-05,2.4782940381129494e-05,2.0215342929456406e-05,6.7720175266572365e-06,1.1989331402399255e-05,1.705767912743757e-05,2.0383891599588347e-05
20.436923076923037,3.0377915009912234e-05,3.7577249078897995e-06,6.9028000195222225e-06,4.64340937656497e-05,0.00016027784155122997,1.0664721164014661e-05,2.0984651984671625e-05,2.0792324688301277e-05,7.612662480009173e-06,1.1088540485815201e-05,1.6119821459407528e-05,7.767922997696057e-06
20.499230769230728,2.244284222048994e-05,3.6912845843062313e-06,6.76222627736441e-06,4.483882649921611e-05,0.0001254344371290017,1.0854950315083063e-05,2.867074834658941e-05,4.600328061883374e-05,6.352394413985015e-06,1.1927087333655588e-05,1.4823186087179844e-05,5.022189158410129e-06
20.56153846153842,1.389791715572149e-05,3.577986347143754e-06,7.504259811478657e-06,1.6658337820748177e-05,0.00011208133055144269,9.508659543892387e-06,2.302681762410922e-05,0.00013000553137795616,5.913888265259478e-06,1.5252600439197295e-05,1.7007324371813106e-05,4.43052058164047e-06
20.623846153846113,1.0065359477332929e-05,3.6129549395506427e-06,9.548523687641363e-06,1.2273276356230175e-05,8.698996680559883e-05,9.124005006810876e-06,1.0980137828653369e-05,0.0001587497142701011,7.138488326319248e-06,1.6423348867533605e-05,1.6481396740649265e-05,4.671803879100859e-06
20.686153846153804,7.83995829323203e-06,3.6528191278269634e-06,1.8882340222603487e-05,1.556801704841367e-05,9.514744013188192e-05,1.0340911976432683e-05,8.183349868554993e-06,8.274897662848464e-05,7.9406678295868e-06,1.3748251589144427e-05,1.6230322250028923e-05,5.24458942787002e-06
20.7484615384615,9.312136012814184e-06,3.5577045603455796e-06,1.772138299619049e-05,1.237258717168288e-05,7.560349435541033e-05,1.025209176646058e-05,1.4490984448182568e-05,2.7337046270522098e-05,6.865033963994923e-06,1.1293456470914028e-05,1.6272983940031813e-05,4.550812562105951e-06
20.81076923076919,1.2664225192556462e-05,3.5863788023486147e-06,6.735650164557683e-06,7.882620001709029e-06,2.495009020317222e-05,9.501665788036462e-06,2.1755359663444553e-05,2.938830394209428e-05,6.109012997986459e-06,1.283207450721117e-05,1.6265290836040927e-05,4.118600755020907e-06
20.87307692307688,1.3480392094085876e-05,3.755626791720109e-06,6.558009713823291e-06,3.4611912333559756e-06,1.9280982129525152e-05,9.942270047721043e-06,2.7413977196270405e-05,5.7784898682674184e-05,5.867729713315839e-06,1.5489687491291686e-05,2.3947191002804403e-05,4.259174486757426e-06
20.935384615384574,1.1772526089496675e-05,3.7647186331923877e-06,9.372981354497749e-06,7.367182908524228e-06,1.9202652523612566e-05,1.0310139623470605e-05,2.7974873371287384e-05,9.946326440702554e-05,5.570496681410002e-06,1.5045586363271467e-05,2.545643542764727e-05,5.574692909012432e-06
20.997692307692265,1.0741652037656498e-05,3.771712339547169e-06,1.0284962231802789e-05,1.2316637404078771e-05,1.828577605351711e-05,9.810088758399616e-06,1.764724948619308e-05,0.00015451571727282954,5.714567282666394e-06,1.6228224108279695e-05,1.7557729971429126e-05,6.275463501263326e-06
21.059999999999956,6.49779379502983e-05,3.822067121461714e-06,1.2606876752367195e-05,1.3452417256113829e-05,3.290404619325689e-05,9.99192544834197e-06,2.2562434822977668e-05,0.00022196663336539283,8.934475233720226e-06,1.4827382309808476e-05,1.6468108604309843e-05,5.215215812389336e-06
21.12230769230765,0.0001006633858030644,3.6486229158564735e-06,1.3650339535568416e-05,1.8017217238745314e-05,0.0002879677524390445,1.1082246118832017e-05,4.7409717192910725e-05,0.0003058436962836216,1.0580796540674935e-05,1.181658663208888e-05,1.7189860362047208e-05,5.788001348131881e-06
21.18461538461534,5.1286335409391386e-05,3.671702182828085e-06,2.0250311543416425e-05,2.3020523407997946e-05,0.0008652187757656785,9.990526682675712e-06,3.4694437834540776e-05,0.0002601390476248374,1.0063960735588276e-05,1.1942473544479527e-05,1.4779125652590135e-05,6.274764151707283e-06
21.246923076923036,2.3940896720375805e-05,3.7017751642072956e-06,2.059719994846887e-05,2.112942196082675e-05,0.0008140611252050197,1.0149284096883094e-05,1.2015208162570918e-05,0.0001264471272852082,9.452709728445067e-06,1.3817489377032643e-05,1.5288268333553863e-05,8.2372015358582e-06
21.309230769230727,2.0604893042512154e-05,3.6360342022589975e-06,9.801696262220123e-06,1.2415248867133262e-05,0.0003283222073188578,1.041714351401879e-05,1.4914104472059838e-05,6.0420830927891225e-05,6.82377101052604e-06,1.3225820848343044e-05,1.709264769829133e-05,1.7363304575942114e-05
21.371538461538417,1.500432337309121e-05,3.7003764172519975e-06,5.211019558733673e-06,1.017236336124938e-05,0.0002113347831880219,9.854848588967494e-06,2.886937013428792e-05,3.612045735839805e-05,5.255079994744468e-06,1.1089239897662159e-05,1.6206543559367977e-05,2.7406284197202997e-05
21.433846153846112,2.349120066374629e-05,3.7773073235788007e-06,6.2160169029823464e-06,2.1409170616711512e-05,0.00014264667757615256,1.0536036762687218e-05,3.732267747101521e-05,3.136612757449105e-05,6.296444653012637e-06,1.1489280565039432e-05,1.5618371831275604e-05,2.7088070063522687e-05
21.496153846153803,3.653868159598043e-05,3.7829022924521873e-06,9.313534763085348e-06,1.9171880131333787e-05,0.00014276906724954112,9.861142917818218e-06,2.181340758085071e-05,2.7802827960954347e-05,7.442715077606484e-06,1.188512502873588e-05,1.715489176490337e-05,1.77388672713145e-05
21.558461538461493,3.312155072639674e-05,3.811576548666077e-06,8.130896987050088e-06,1.7729076122918742e-05,0.00024308136833823825,1.0282864137186228e-05,3.6005760361253654e-05,2.4433254455402676e-05,7.521044690624498e-06,1.1880928805870402e-05,1.6232420317644862e-05,8.340009152855524e-06
21.620769230769188,1.952086665279277e-05,3.886409342612751e-06,6.458698932239789e-06,2.2393186898265565e-05,0.0002546440824971796,1.1022799540919929e-05,7.365574381689536e-05,6.938467989409484e-05,6.201330053319983e-06,1.181938409544614e-05,1.4595190857609925e-05,5.361384512288699e-06
21.68307692307688,1.1252892862737933e-05,3.6500216443376607e-06,8.88202235434695e-06,1.3662228832108289e-05,0.0001712488865265982,1.0334617640002837e-05,6.053203119525581e-05,0.00013746013614361155,5.413138016289546e-06,1.2408255162199567e-05,1.5750553113491606e-05,5.2655705526187075e-06
21.745384615384573,9.057564660963635e-06,3.5695938701489165e-06,1.2675415189041435e-05,1.9857264507313252e-05,0.00012446650626998234,9.674410619690359e-06,2.2538656143685405e-05,0.00014543996894550066,6.650326790946792e-06,1.1852254496839502e-05,1.5502975517496984e-05,4.494862796159774e-06
21.807692307692264,9.571602929743979e-06,3.6898858202979077e-06,2.4239528548501237e-05,2.1105643255718103e-05,9.751411468930845e-05,1.0444419000776861e-05,9.64853385288696e-06,8.413163452137458e-05,7.135690860119818e-06,1.3081750207296258e-05,1.650587473941793e-05,5.303336658120846e-06
21.869999999999955,9.314933495356096e-06,3.6989776617701866e-06,2.2295974206324822e-05,1.1706085806177194e-05,5.4171244390488485e-05,1.0624157586391902e-05,1.0485681977693654e-05,2.6411077999928997e-05,7.037079431881921e-06,1.6089748499581446e-05,1.6791218454415e-05,5.057857137321283e-06
21.93230769230765,1.168370592665724e-05,3.775908580413064e-06,8.458203011230125e-06,7.941367202590755e-06,3.232356764849935e-05,9.528941294216035e-06,2.676496027689268e-05,4.635436527517337e-05,6.972737215467835e-06,1.6161084409797392e-05,2.0832188945973938e-05,5.145278621417523e-06
21.99461538461534,1.3694399934157294e-05,3.8024847147729208e-06,6.2125200405679e-06,4.975331260226312e-06,2.5494900990944796e-05,1.0548625462547534e-05,3.818430364077585e-05,0.00010847187236914616,5.916685738564335e-06,1.464134939439532e-05,2.590193536562424e-05,5.1033163228927e-06
22.056923076923034,1.1313738215790182e-05,3.6339360974579903e-06,7.691691471241786e-06,9.325424058440982e-06,2.0651051623114352e-05,1.1325627575805204e-05,2.5160601245014882e-05,0.00011996045348112716,4.952951349679324e-06,1.2455113031487978e-05,2.1395183253976786e-05,4.39065642557542e-06
22.119230769230725,7.920386070499792e-06,3.7234556771181815e-06,9.520548839958565e-06,1.4575608422025728e-05,2.4897637401011254e-05,1.301950612978923e-05,1.0775921270796591e-05,0.00021663392317231947,6.470588245595839e-06,1.1777421765183741e-05,1.6121220229810737e-05,4.542420108085329e-06
22.181538461538416,1.1338915586141714e-05,3.9402609379142936e-06,1.3783919555265812e-05,1.582958214877787e-05,6.46359449942698e-05,1.3018806756074734e-05,3.700376381606437e-05,0.0003055583529942396,9.455507248645744e-06,1.274745054023659e-05,1.7076562181254454e-05,4.431219969802669e-06
22.24384615384611,1.9883141281222076e-05,3.789196628645186e-06,2.052796216460706e-05,3.0597517803698795e-05,0.0002830001145667893,1.1485783670413714e-05,6.876153958804329e-05,0.00030803902536338985,1.223760841071453e-05,1.2059967982006962e-05,1.6060374907548673e-05,5.803387513481084e-06
22.3061538461538,2.675027328133221e-05,3.730449407157721e-06,2.9422573178550237e-05,4.054118655384779e-05,0.0007124396002306336,1.075494010744175e-05,4.58389282970965e-05,0.0001935105926778628,1.1672515967357337e-05,1.2860049316524662e-05,1.545471886619983e-05,5.345998338412983e-06
22.368461538461492,2.0134915117135204e-05,3.6465247821600618e-06,2.1343429718001517e-05,2.1907822785986277e-05,0.0008865594074836262,9.660423191348855e-06,1.4616171988753497e-05,4.389397511156782e-05,8.265176369330144e-06,1.26488390328916e-05,1.633103177217284e-05,6.704178426986118e-06
22.430769230769187,1.0129701678588768e-05,3.576587585030211e-06,6.877622650354927e-06,9.631748938687678e-06,0.000491522721934956,1.0499669383060942e-05,2.6114544522926052e-05,4.555358444970163e-05,5.89010961083621e-06,1.1438925790940857e-05,1.5861053901744528e-05,2.383599094102351e-05
22.493076923076877,1.470848907558775e-05,3.6961801839652255e-06,6.234200562478994e-06,2.319117020093131e-05,0.0001620444547233054,1.108154677661825e-05,5.627215752260402e-05,4.779087498292256e-05,5.717364779656009e-06,1.2308244988190609e-05,1.5920500502867677e-05,3.901445805141179e-05
22.555384615384572,2.409755593362206e-05,3.7192594627792155e-06,6.883217603833221e-06,3.479304960715505e-05,0.0001962451365159268,9.95555814829648e-06,4.0913252471834007e-05,4.2786869695987664e-05,6.80698610390588e-06,1.1774624264167717e-05,1.6570916310835553e-05,3.384190392949904e-05
22.617692307692263,2.749930057698672e-05,3.6856896050115514e-06,6.385964221067298e-06,2.833924618694065e-05,0.0001786678240627282,1.0545128580001044e-05,1.3369192023541624e-05,3.124443688449219e-05,6.5733959004887765e-06,1.2078151641029915e-05,1.6885633637760596e-05,1.8301162220524248e-05
22.679999999999954,2.2514877533315787e-05,3.7262531805026812e-06,5.951654330497528e-06,1.41287098552804e-05,0.00015772023867815694,1.1063363106700309e-05,1.2836970063053362e-05,3.572111594370616e-05,5.687991141437957e-06,1.1924289814639148e-05,1.4531548024857936e-05,6.468490126820825e-06
22.742307692307648,1.3157981733276832e-05,3.7171613579782084e-06,5.3299127782698486e-06,7.97563640423012e-06,0.00018563776347567303,1.0159774695258268e-05,1.3269881249300397e-05,9.820789170049693e-05,5.6131583562546435e-06,1.16102718320595e-05,1.5200846837615245e-05,4.468286673642297e-06
22.80461538461534,7.768622376858047e-06,3.7304494147368435e-06,7.824572126461741e-06,1.6902418533485767e-05,0.00016596583243734623,9.513555128393136e-06,1.3164276126550097e-05,0.00016283404536470886,5.955151178464272e-06,1.2964255702740957e-05,1.6782126560125715e-05,4.778108401382042e-06
22.86692307692303,7.3427049272822845e-06,3.737443123933796e-06,1.7177971099850234e-05,4.168815645992178e-05,0.0001089397523365676,9.108618814461048e-06,1.048148574464373e-05,0.0001030384524379239,7.011902044477362e-06,1.282438136556152e-05,1.589392436282348e-05,4.254278897282878e-06
22.929230769230724,8.412743872080834e-06,3.64792352911536e-06,1.7875244833239397e-05,5.579588514000496e-05,6.929935661664407e-05,1.0684303546545e-05,1.2151585689442376e-05,3.544626275318781e-05,6.8545434028048175e-06,1.2532743348003805e-05,1.640796270028962e-05,3.8066809184537457e-06
22.991538461538415,9.738053498864475e-06,3.6255436299370556e-06,8.370082172604043e-06,2.8388202238952923e-05,6.40484727786846e-05,1.0796203062331718e-05,2.3954884183533903e-05,3.504971897522561e-05,6.422331578666747e-06,1.3578304251401126e-05,1.773467107805497e-05,4.96204318854628e-06
23.05384615384611,1.0645138754246849e-05,3.7360443817154496e-06,4.961343812937003e-06,1.0731161455623806e-05,3.484270485808831e-05,9.500267042028554e-06,3.0430367978103353e-05,7.456282905498786e-05,5.791498184493093e-06,1.4023104725898368e-05,2.196517130788796e-05,5.526436266004945e-06
23.1161538461538,1.1071056168058627e-05,3.753528672708247e-06,6.61046260574949e-06,1.3109725071321539e-05,2.0344027388100963e-05,1.011151804561905e-05,2.4724892468460288e-05,0.00010499669375244973,5.762124589618149e-06,1.3393670084364354e-05,2.264775823258939e-05,5.698481732944553e-06
23.17846153846149,1.099342589843862e-05,3.8059815501867435e-06,8.216220345502734e-06,1.4191653289922595e-05,3.030867737218538e-05,1.0820681100653929e-05,1.7426248042085036e-05,0.00023526728749843074,7.237799148877381e-06,1.3523053855616732e-05,1.7780829571260406e-05,6.02019277001394e-06
23.240769230769185,9.379975104432484e-06,3.7276518997468124e-06,1.1928486061899927e-05,1.9967765310250723e-05,4.230989796312201e-05,1.1247297916128218e-05,1.2594288084954997e-05,0.00041191672425142654,8.351898478290801e-06,1.3109025684580427e-05,1.7094046423219804e-05,5.662114391450738e-06
23.303076923076876,1.6732471267507282e-05,3.5793850827303684e-06,2.2097352452021824e-05,2.6280994897120992e-05,0.00016557838013776897,1.093258058470307e-05,4.253509571607121e-05,0.00045302650049876546,8.24209708696344e-06,1.0857747767071639e-05,1.7792019576745588e-05,5.166959132433628e-06
23.365384615384567,2.039088535212841e-05,3.6849902348497682e-06,2.326880027586261e-05,3.562040635121851e-05,0.000823866319548235,1.0288459127139048e-05,5.7670901055928427e-05,0.00037402825460427873,7.786106621665567e-06,1.160118005240444e-05,1.4290264778319775e-05,5.148076092353904e-06
23.42769230769226,1.9688715944236417e-05,3.6884870837639028e-06,1.3742656562717078e-05,2.8403588396486155e-05,0.0011416517921489344,1.0077948220062656e-05,3.1411586758641384e-05,0.0002007015326311053,7.711973226776081e-06,1.4465107731827705e-05,1.4571412221897618e-05,7.698685168359513e-06
23.489999999999952,1.7943083842197895e-05,3.7101676222543273e-06,7.95115837561866e-06,1.4046883363505458e-05,0.0006933264673541828,9.81498438434869e-06,1.933203632754991e-05,8.641997896864003e-05,6.313229587817659e-06,1.3465705396242811e-05,1.6595394324288767e-05,1.428466973697103e-05
23.552307692307647,1.2983138797769318e-05,3.7486330806283758e-06,5.443211003589947e-06,2.2684824883375163e-05,0.0003593512357826493,1.0189847667400424e-05,5.546298400673777e-05,4.8232178673875596e-05,5.414536780771565e-06,1.1566910842949103e-05,1.5981345871788714e-05,2.5484410343305323e-05
23.614615384615337,2.0538452702586103e-05,3.7395412363139257e-06,5.459296558759282e-06,3.517560591674851e-05,0.00019897618290229958,9.642938910303655e-06,5.697013033483245e-05,3.6040728827183935e-05,5.26906742805977e-06,1.147878999366488e-05,1.609254599870269e-05,2.6750273347175833e-05
23.67692307692303,3.1741690137702486e-05,3.812975288042253e-06,7.595178164147379e-06,2.8451845114574326e-05,0.00016722120553562073,9.888418424471486e-06,1.700452685137558e-05,2.863088422084085e-05,7.266473367195658e-06,1.266352591026513e-05,1.67555505046361e-05,1.647160547146124e-05
23.739230769230723,3.1957796000151954e-05,3.7975891046926334e-06,6.929376179698465e-06,3.330198879396562e-05,0.00022101408935644903,1.1091337977357323e-05,1.4367895056229448e-05,2.2849876634249235e-05,7.771419833820421e-06,1.2953065836995848e-05,1.5877139462124507e-05,8.665916440738405e-06
23.801538461538414,2.5143116839624706e-05,3.800386577760643e-06,6.000610385115124e-06,3.7909450502363976e-05,0.0002808103810271708,1.0612967661671746e-05,1.3233513963465763e-05,7.257801160349686e-05,6.061455705245559e-06,1.1987932709445203e-05,1.491480379840482e-05,5.210320188098194e-06
23.863846153846104,1.5465908787130427e-05,3.6542178719400908e-06,8.572899968347277e-06,2.3760458891312434e-05,0.00022454871393241168,1.0093334401517495e-05,1.3123712524058343e-05,0.00015388628193472678,6.211820646010817e-06,1.4899417679004045e-05,1.6634559172719796e-05,4.2437883235398505e-06
23.9261538461538,8.460301107030924e-06,3.563998907907262e-06,8.227410268328109e-06,3.973201327530281e-05,9.81169727135504e-05,9.565308630499203e-06,1.669820195786542e-05,0.00014687228201732221,8.29804685859396e-06,1.4416151699000086e-05,1.665693909747764e-05,4.830561295203021e-06
23.98846153846149,7.595877552309579e-06,3.6500216377059285e-06,2.3927608654380114e-05,5.752263399519582e-05,6.300291169717791e-05,9.797500050960176e-06,1.2923692193093454e-05,7.075964497407957e-05,7.884018729479674e-06,1.1436128256292477e-05,1.61764706433587e-05,5.225706373579442e-06
24.050769230769184,7.145482079806698e-06,3.5863787928747117e-06,2.4657053488870893e-05,3.64407694805872e-05,6.901680987804563e-05,1.0450713372733843e-05,1.2239706529726391e-05,2.925822071233597e-05,6.148877178683658e-06,1.1944571598358304e-05,1.6760446141953857e-05,5.072543949798577e-06
24.113076923076875,7.924582298575918e-06,3.7143638498567573e-06,7.357391753023042e-06,1.1866241906706895e-05,4.639213114051207e-05,9.528941308190043e-06,2.455634401717551e-05,4.5668281687246313e-05,6.353093781304627e-06,1.2222222237549355e-05,2.445353630662339e-05,4.564799994710711e-06
24.175384615384566,9.097428869608847e-06,3.8164721549568036e-06,6.447508998045729e-06,7.932974746675351e-06,1.9429248980647646e-05,9.950662513820893e-06,2.4054894382411855e-05,7.431874836356655e-05,5.240393204057151e-06,1.2139696346954073e-05,2.8299381975453266e-05,4.2983393219249894e-06
24.23769230769226,1.0482185090883908e-05,3.738142499779921e-06,6.636339386526894e-06,1.3219526451280217e-05,1.6070865462107047e-05,1.0629752567107669e-05,1.49602629141062e-05,6.913150739862317e-05,5.169756632028566e-06,1.3201342786572923e-05,2.0283182018232537e-05,5.236896331931954e-06
24.29999999999995,8.663118972881041e-06,3.7381424860427616e-06,1.0141591032682602e-05,1.4033595235929396e-05,2.3050596365929246e-05,1.0562612877151878e-05,1.0594783947463308e-05,0.00028005366126938235,7.253884723705066e-06,1.4025902154675881e-05,1.593868418154898e-05,5.438315416720722e-06
24.362307692307642,8.538630800813963e-06,3.868925016092817e-06,1.7383586369845717e-05,1.4620368181539334e-05,3.768565153663417e-05,1.0070255102808308e-05,2.5599806730033e-05,0.0004494799840931781,8.554716328272132e-06,1.3156582998163913e-05,1.7721382987190283e-05,6.037677089902142e-06
24.424615384615336,1.7271686934824024e-05,3.7877978892690103e-06,1.725979757575639e-05,1.711362879343407e-05,0.0002258075844724298,9.959754339187535e-06,4.996592135289764e-05,0.000517849874491579,9.575099816553727e-06,1.190400810055318e-05,1.7154891796640944e-05,6.660118034792125e-06
24.486923076923027,2.3319854605811467e-05,3.7017751585229537e-06,1.595896596597868e-05,2.4475216817165803e-05,0.0006467301199810057,1.0906703796820238e-05,3.7330370427450056e-05,0.00046885398298381157,9.320528478440338e-06,1.1662724782960746e-05,1.4653238718646359e-05,7.604269975540016e-06
24.54923076923072,2.080281531722979e-05,3.7003764077780945e-06,1.599253576121858e-05,2.1594504266175817e-05,0.000670506663264329,1.008004630567901e-05,1.2404058970361121e-05,0.0001894192668567977,8.163767454760772e-06,1.2632753514433641e-05,1.562256807877323e-05,1.3380381888813038e-05
24.611538461538412,1.4631558185840276e-05,3.6500216358111476e-06,9.32472470888494e-06,1.0230411263497292e-05,0.00041688925664402633,9.868136620146592e-06,3.187666891501332e-05,5.957878736874515e-05,6.317425798840759e-06,1.2134800778795806e-05,1.6284173869015226e-05,2.0113933952359276e-05
24.673846153846103,1.3327229765517738e-05,3.664708441419862e-06,5.866330989808451e-06,1.829906410222293e-05,0.00027831572103214817,1.0556318511589779e-05,7.16569390213806e-05,3.199276460605915e-05,5.482375847757718e-06,1.1859248262879873e-05,1.6188359956951597e-05,2.3819205962638536e-05
24.736153846153798,2.1700808781114725e-05,3.724854419336528e-06,6.8671320650063684e-06,2.5145214995821636e-05,0.00015791396411657388,1.0396162382401523e-05,5.36760891331293e-05,2.852248156652119e-05,7.1510770671541955e-06,1.1971847143617727e-05,1.604149182223106e-05,2.35289666889571e-05
24.79846153846149,3.236483052641385e-05,3.7766079448905052e-06,7.553215853069635e-06,2.2246318747439393e-05,0.00014730379419489737,1.0328323294572784e-05,1.7818595667051794e-05,2.4110844009802197e-05,5.690089291240004e-06,1.1465501930985056e-05,1.6900320459474946e-05,1.604708683113169e-05
24.86076923076918,2.9934513427794703e-05,3.8332570691560855e-06,6.628646288220352e-06,2.970372067683987e-05,0.00018278152871242052,1.0473093255332817e-05,1.6172973752996236e-05,2.6136924238547483e-05,5.213117671113802e-06,1.1272475290743008e-05,1.5176368930032898e-05,7.63923857813135e-06
24.923076923076874,1.8317947200093463e-05,3.7905953793900456e-06,6.082436870258335e-06,2.4396187811722332e-05,0.00021205163878003456,1.1064761837786818e-05,2.1360214677675534e-05,0.00010357067483136954,5.794995035065161e-06,1.142633707734338e-05,1.5880636340170895e-05,4.430520590877526e-06
24.985384615384564,1.130534574897979e-05,3.645126031415202e-06,1.108993921903334e-05,1.7747259775783656e-05,0.00014707440036663874,1.0938175563287208e-05,1.562536559281587e-05,0.00018407326906123936,5.785903216093402e-06,1.2981740002260268e-05,1.717377487461628e-05,4.060552891142303e-06
25.04769230769226,8.972940684041456e-06,3.656315988109782e-06,1.5476399364426168e-05,2.513472448460637e-05,8.628360135745083e-05,8.983431275784899e-06,1.2650237740530202e-05,0.00011724339425758975,7.61266245490333e-06,1.3105528834008359e-05,1.5230919899048938e-05,4.627044083349574e-06
25.10999999999995,1.0159075324385943e-05,3.7367437575615743e-06,2.7429363448305822e-05,2.337230740418287e-05,6.899163265335535e-05,1.0454909619047233e-05,1.2402660127956247e-05,3.353837635842183e-05,6.44820835281242e-06,1.214039571853694e-05,1.5517662319079288e-05,5.19773150268558e-06
25.17230769230764,1.2134101412423585e-05,3.7038732727978642e-06,2.3706607186350464e-05,1.4342717626429173e-05,5.485313188700047e-05,1.1133300294119408e-05,1.9144604732919863e-05,3.037511759510873e-05,4.910989055417758e-06,1.263625035979506e-05,1.6647847195135532e-05,5.30543475344795e-06
25.234615384615335,1.2778922238254609e-05,3.7696142176931365e-06,7.252485967986407e-06,7.653925385871692e-06,4.256027313758182e-05,9.50796013015065e-06,3.286628017207249e-05,9.305072351087537e-05,6.350296279104365e-06,1.2895017979275281e-05,2.192181016482664e-05,5.181645940647665e-06
25.296923076923026,1.2016606886078307e-05,3.8220671247775804e-06,7.535731572261284e-06,1.4309147824083842e-05,2.5987258711760813e-05,1.0701787860512014e-05,2.782171104864043e-05,0.00013274427149762385,6.150275937481335e-06,1.377972330611025e-05,2.2028114705581933e-05,5.208222074770674e-06
25.359230769230717,1.1169667596296525e-05,3.87382063541016e-06,9.472292179898052e-06,2.014400708011029e-05,2.9572238762417177e-05,9.898209622842084e-06,1.5263790347338122e-05,0.0002482902889705466,6.648928079044936e-06,1.3946173760122823e-05,1.5359604314587236e-05,5.450904082711835e-06
25.42153846153841,1.4012614137707639e-05,3.773810447427195e-06,1.3480392167034931e-05,1.4121716168820815e-05,3.3965692690666556e-05,1.0366788730446312e-05,1.4020307263014805e-05,0.00041741658310883166,8.10571960343509e-06,1.2329925454205674e-05,1.6021210046327877e-05,4.78859896138791e-06
25.483846153846102,2.4418567622082796e-05,3.63113859217871e-06,1.787384607444172e-05,1.3695798667849127e-05,0.00022830643877682632,1.1331921868181401e-05,6.094116358047093e-05,0.00043163061733366705,7.195137463374598e-06,1.1345209929676987e-05,1.821234202357876e-05,4.880916055564436e-06
25.546153846153796,2.3258309771042225e-05,3.7199588149405825e-06,2.1062282239370234e-05,1.756682176340026e-05,0.0008216388202811232,1.0864741517953764e-05,6.873985889110183e-05,0.0003792574576607421,8.189644235538178e-06,1.213270264273092e-05,1.4651840057193037e-05,5.792896949448808e-06
25.608461538461487,1.866133870436215e-05,3.694082060216412e-06,2.424442411476472e-05,1.6014216308235517e-05,0.0009626489688623489,1.000591289847345e-05,2.3637369332618617e-05,0.00024657123414897344,8.59947613728688e-06,1.4072760150914594e-05,1.4904313267294356e-05,5.825068044392386e-06
25.670769230769178,1.7263993718093693e-05,3.7185600831435293e-06,1.563375807857407e-05,1.0343010094497155e-05,0.000620640752534977,9.838763016508286e-06,2.7576231517656424e-05,9.274999358671228e-05,5.411039915041253e-06,1.2755842998757316e-05,1.6759047340760466e-05,9.83946235043239e-06
25.733076923076872,1.2255092651495639e-05,3.698278295397965e-06,6.546819758786645e-06,1.9068373155543365e-05,0.00047564138862696834,1.0780117511662487e-05,4.68649066249327e-05,4.983513912482825e-05,4.915884653892514e-06,1.1103227329319528e-05,1.5907911804665295e-05,1.7843773058956457e-05
